massimale_chiusura.c3d



Time(s):	Emg_1(uV):	Emg_2(uV):	Emg_3(uV):	Emg_4(uV):	Emg_5(uV):
0	-40.48462	-14.30054	-0.10071	29.20532	-40.38391
0.0005	-32.93152	-13.69629	-4.73328	19.83948	-44.21082
0.001	-27.19116	-10.17151	-3.12195	23.46497	-49.54834
0.0015	-17.72461	-2.01416	-1.91345	16.01257	-55.49011
0.002	-8.7616	-5.13611	-0.60425	13.19275	-53.37524
0.0025	-2.21558	-2.11487	-5.23682	10.37292	-50.2533
0.003	-1.40991	4.43115	-1.40991	12.18567	-46.02356
0.0035	13.39417	5.53894	4.33044	6.64673	-41.29028
0.004	21.45081	0.10071	-0.80566	0.70496	-38.06763
0.0045	21.85364	7.45239	-1.51062	-0.70496	-29.91028
0.005	34.14001	2.5177	-2.11487	-2.5177	-25.57983
0.0055	43.10303	8.25806	3.92761	-10.17151	-28.60107
0.006	48.03772	12.38708	2.81982	-17.01965	-16.21399
0.0065	53.87878	11.38	-1.91345	-22.45789	-7.35168
0.007	54.68445	13.39417	0.90637	-21.24939	5.33752
0.0075	51.5625	10.57434	-0.90637	-24.67346	13.09204
0.008	49.24622	8.25806	-3.02124	-27.99683	22.55859
0.0085	46.82922	11.78284	-1.51062	-22.96143	30.11169
0.009	39.98108	12.5885	-2.71912	-20.04089	36.15417
0.0095	47.8363	12.18567	2.11487	-29.40674	43.20374
0.01	36.05347	6.04248	1.91345	-25.78125	39.17542
0.0105	35.75134	6.2439	5.53894	-26.88904	46.22498
0.011	23.56567	4.33044	-1.81274	-25.78125	48.74268
0.0115	9.86938	1.91345	-0.20142	-22.05505	48.13843
0.012	1.10779	-0.60425	-2.5177	-20.44373	48.94409
0.0125	-7.75452	-2.61841	-3.92761	-11.98425	44.71436
0.013	-11.78284	-3.92761	-2.92053	-11.17859	39.98108
0.0135	-22.45789	-9.97009	3.22266	-6.54602	37.96692
0.014	-28.09753	-9.56726	1.51062	-0.90637	36.25488
0.0145	-28.29895	-11.17859	-4.53186	-5.94177	28.60107
0.015	-37.66479	-15.81116	-5.53894	2.92053	12.99133
0.0155	-47.63489	-20.24231	-8.7616	5.43823	18.32886
0.016	-50.75684	-18.42957	-5.94177	10.67505	8.66089
0.0165	-48.23914	-15.00549	-12.08496	15.40833	6.14319
0.017	-57.50427	-16.41541	-6.74744	19.53735	-3.12195
0.0175	-54.98657	-18.53027	-2.71912	19.83948	-18.73169
0.018	-54.28162	-18.02673	-1.2085	26.68762	-18.12744
0.0185	-52.36816	-13.59558	-5.74036	20.84656	-22.25647
0.019	-48.74268	-13.19275	-0.70496	29.80957	-30.41382
0.0195	-47.63489	-18.73169	-5.94177	22.35718	-40.98816
0.02	-40.1825	-13.29346	-3.12195	25.07629	-46.5271
0.0205	-39.88037	-12.18567	-0.10071	26.98975	-47.63489
0.021	-28.70178	-15.60974	-2.5177	25.78125	-47.33276
0.0215	-20.64514	-7.15027	-4.83398	21.55151	-52.67029
0.022	-9.36584	-1.3092	-1.3092	12.28638	-50.55542
0.0225	-3.7262	-4.12903	-0.20142	12.18567	-45.11719
0.023	2.31628	4.12903	-3.22266	6.64673	-48.84338
0.0235	14.09912	1.81274	-0.20142	6.44531	-38.87329
0.024	18.02673	-0.30212	-3.12195	3.92761	-32.02515
0.0245	27.89612	-0.80566	-4.12903	4.63257	-31.11877
0.025	32.93152	9.76868	-1.10779	-2.71912	-22.05505
0.0255	39.27612	14.50195	0.50354	-10.0708	-15.20691
0.026	45.11719	7.04956	-1.91345	-9.16443	-6.44531
0.0265	48.54126	6.64673	-0.10071	-19.03381	2.5177
0.027	52.8717	10.0708	-0.10071	-25.98267	3.52478
0.0275	46.82922	5.63965	2.11487	-22.6593	24.06921
0.028	53.17383	8.56018	1.71204	-27.29187	24.27063
0.0285	51.05896	12.48779	-1.51062	-23.26355	27.49329
0.029	40.98816	15.40833	0.50354	-26.78833	36.55701
0.0295	44.21082	8.7616	1.61133	-28.60107	39.17542
0.03	38.36975	10.17151	-0.50354	-27.09045	37.7655
0.0305	34.74426	3.52478	8.35876	-24.87488	44.11011
0.031	27.89612	2.11487	-4.12903	-30.61523	52.16675
0.0315	19.03381	-4.33044	3.32336	-25.47913	47.8363
0.032	8.35876	-2.31628	-6.64673	-23.16284	44.41223
0.0325	-1.51062	-7.25098	0.50354	-20.24231	44.61365
0.033	-8.66089	-7.04956	2.01416	-15.60974	44.31152
0.0335	-17.01965	-9.56726	1.81274	-11.58142	34.74426
0.034	-26.28479	-12.08496	3.32336	-7.45239	28.19824
0.0345	-37.46338	-11.58142	5.84106	-2.01416	25.07629
0.035	-41.18958	-15.20691	-2.71912	7.5531	20.1416
0.0355	-49.64905	-19.03381	-1.91345	4.33044	20.1416
0.036	-55.89294	-15.60974	-1.51062	8.56018	20.1416
0.0365	-59.92126	-17.22107	-5.13611	15.81116	20.1416
0.037	-60.12268	-25.07629	-1.81274	17.01965	20.1416
0.0375	-56.79932	-13.99841	0.10071	18.53027	20.1416
0.038	-58.00781	-13.59558	-2.21558	22.96143	20.1416
0.0385	-51.86462	-13.89771	-6.84814	23.16284	20.1416
0.039	-51.46179	-11.98425	-0.70496	27.19116	20.1416
0.0395	-50.354	-12.18567	-1.3092	24.27063	20.1416
0.04	-42.49878	-10.77576	-7.5531	23.26355	20.1416
0.0405	-36.95984	-11.88354	-0.50354	26.48621	20.1416
0.041	-31.52161	-1.51062	-5.63965	17.32178	20.1416
0.0415	-22.76001	-0.60425	-4.93469	13.797	20.1416
0.042	-11.58142	-2.71912	-3.42407	16.81824	20.1416
0.0425	-0.70496	-3.12195	-0.10071	11.58142	-52.67029
0.043	0.90637	5.33752	-2.21558	7.75452	-46.02356
0.0435	12.18567	4.02832	2.5177	6.2439	-41.29028
0.044	12.5885	1.91345	1.3092	2.71912	-34.34143
0.0445	26.68762	3.62549	-0.10071	0.20142	-31.32019
0.045	26.28479	12.89062	2.41699	-11.17859	-27.09045
0.0455	38.87329	15.40833	-0.80566	-7.15027	-20.74585
0.046	42.49878	11.68213	1.10779	-12.08496	-10.0708
0.0465	49.24622	12.99133	-1.40991	-14.30054	-0.90637
0.047	57.30286	9.86938	-0.70496	-18.8324	13.39417
0.0475	52.06604	8.15735	-2.01416	-20.24231	13.59558
0.048	48.64197	8.56018	0	-18.02673	19.83948
0.0485	42.7002	8.8623	1.2085	-23.56567	25.47913
0.049	42.8009	7.15027	-0.60425	-24.87488	35.44922
0.0495	36.4563	8.7616	-3.92761	-33.43506	42.39807
0.05	37.86621	8.35876	-0.40283	-24.87488	46.22498
0.0505	26.68762	9.06372	-2.61841	-22.76001	47.8363
0.051	22.86072	2.5177	-2.21558	-31.62231	50.2533
0.0515	14.40125	6.54602	1.91345	-29.40674	52.16675
0.052	7.25098	0.10071	2.71912	-21.14868	50.55542
0.0525	-5.23682	-6.74744	-2.21558	-14.19983	47.53418
0.053	-8.35876	-8.7616	-3.62549	-11.48071	42.59949
0.0535	-16.01257	-10.17151	-5.63965	-7.75452	37.16125
0.054	-25.88196	-13.29346	-1.40991	-3.62549	34.34143
0.0545	-28.60107	-13.797	-2.11487	0.10071	23.76709
0.055	-34.14001	-14.19983	0	6.2439	18.02673
0.0555	-50.45471	-13.99841	-3.02124	8.45947	12.28638
0.056	-59.01489	-17.12036	-2.92053	7.5531	-1.51062
0.0565	-62.13684	-9.46655	1.40991	10.77576	-0.50354
0.057	-60.82764	-12.5885	-0.90637	14.60266	-6.2439
0.0575	-59.31702	-15.1062	-3.8269	20.34302	-25.07629
0.058	-49.34692	-14.80408	-0.60425	26.88904	-22.86072
0.0585	-47.63489	-16.41541	-4.02832	24.27063	-24.97559
0.059	-47.63489	-10.37292	-7.45239	22.76001	-30.31311
0.0595	-48.94409	-11.58142	-3.7262	26.3855	-36.05347
0.06	-45.41931	-12.68921	-3.7262	22.86072	-40.48462
0.0605	-37.96692	-5.33752	0	20.34302	-44.31152
0.061	-33.33435	-5.94177	-4.73328	21.85364	-47.13135
0.0615	-19.23523	-8.96301	2.11487	15.60974	-48.94409
0.062	-12.28638	0.90637	-0.10071	18.42957	-52.97241
0.0625	-0.70496	4.43115	-2.5177	15.20691	-53.37524
0.063	5.13611	-3.02124	-3.52478	5.13611	-50.05188
0.0635	8.7616	2.41699	-1.10779	6.04248	-46.42639
0.064	15.40833	5.13611	5.33752	-1.81274	-32.42798
0.0645	24.27063	12.28638	1.10779	-2.92053	-29.60815
0.065	32.93152	2.92053	2.81982	-6.2439	-26.3855
0.0655	39.77966	10.97717	4.02832	-8.45947	-22.86072
0.066	41.89453	14.80408	5.0354	-13.797	-14.60266
0.0665	40.98816	12.28638	6.54602	-21.75293	-3.02124
0.067	49.44763	11.98425	1.40991	-24.06921	2.31628
0.0675	55.69153	10.97717	-0.90637	-25.98267	15.50903
0.068	47.53418	9.66797	1.91345	-27.89612	22.86072
0.0685	43.00232	10.97717	-0.50354	-22.76001	23.96851
0.069	43.60657	10.0708	4.43115	-22.55859	31.92444
0.0695	32.62939	7.65381	1.10779	-24.97559	40.58533
0.07	31.32019	5.53894	-1.81274	-27.59399	45.52002
0.0705	31.32019	5.53894	4.12903	-27.09045	47.7356
0.071	31.32019	5.53894	3.22266	-29.60815	53.87878
0.0715	31.32019	5.53894	-1.81274	-22.15576	55.49011
0.072	31.32019	5.53894	0.80566	-17.12036	48.84338
0.0725	31.32019	5.53894	2.5177	-13.09204	44.71436
0.073	31.32019	5.53894	-1.91345	-9.46655	38.16833
0.0735	31.32019	5.53894	3.02124	-4.43115	33.13293
0.074	31.32019	5.53894	5.84106	-1.00708	31.92444
0.0745	31.32019	5.53894	3.32336	2.21558	26.88904
0.075	31.32019	5.53894	-5.53894	5.13611	13.797
0.0755	31.32019	5.53894	-3.92761	10.47363	10.57434
0.076	31.32019	5.53894	-10.27222	9.97009	8.35876
0.0765	31.32019	5.53894	-6.64673	15.81116	-6.3446
0.077	31.32019	5.53894	-7.25098	23.06213	-13.89771
0.0775	-50.85754	-18.73169	-4.12903	19.53735	-24.77417
0.078	-51.15967	-15.20691	0.40283	27.09045	-30.41382
0.0785	-50.15259	-22.76001	0.50354	20.74585	-35.44922
0.079	-43.60657	-10.77576	-5.33752	23.66638	-40.08179
0.0795	-48.13843	-23.66638	-5.53894	22.6593	-40.38391
0.08	-46.22498	-18.32886	-1.61133	28.19824	-44.61365
0.0805	-43.50586	-3.92761	-3.62549	24.77417	-48.23914
0.081	-32.52869	-2.71912	2.01416	24.77417	-57.20215
0.0815	-24.37134	-6.54602	-2.41699	21.75293	-51.66321
0.082	-12.99133	-3.92761	-2.5177	13.69629	-46.92993
0.0825	-2.31628	-2.5177	-8.56018	11.98425	-49.24622
0.083	1.10779	1.61133	-6.54602	13.29346	-46.12427
0.0835	9.06372	2.01416	-2.71912	7.75452	-39.57825
0.084	16.11328	7.04956	-2.61841	-0.40283	-35.14709
0.0845	21.65222	8.15735	-2.41699	2.41699	-32.02515
0.085	22.25647	14.50195	-2.5177	-9.26514	-26.88904
0.0855	31.62231	11.2793	5.43823	-10.47363	-15.1062
0.086	41.18958	22.86072	6.14319	-12.68921	-4.12903
0.0865	44.31152	16.21399	-0.10071	-12.89062	-0.20142
0.087	48.64197	20.24231	0.60425	-17.72461	6.94885
0.0875	47.43347	6.44531	0.80566	-19.63806	13.59558
0.088	49.0448	5.43823	0.90637	-24.87488	22.55859
0.0885	50.75684	5.53894	-3.02124	-26.68762	27.39258
0.089	45.82214	6.14319	-3.22266	-29.60815	33.53577
0.0895	44.0094	5.84106	3.52478	-21.85364	34.34143
0.09	36.55701	5.63965	-6.3446	-20.74585	41.18958
0.0905	24.27063	5.63965	-0.30212	-24.27063	44.21082
0.091	18.32886	1.00708	0.30212	-20.44373	46.32568
0.0915	21.45081	-7.75452	-0.70496	-21.65222	54.78516
0.092	3.12195	2.01416	-0.90637	-16.01257	48.74268
0.0925	-9.36584	-3.42407	-3.8269	-17.82532	44.71436
0.093	-11.98425	-7.5531	2.31628	-9.66797	40.88745
0.0935	-19.23523	-12.99133	-3.7262	-11.68213	39.17542
0.094	-26.48621	-7.35168	-2.11487	-2.11487	31.92444
0.0945	-36.55701	-10.47363	1.00708	0.20142	35.44922
0.095	-37.7655	-18.42957	-4.93469	0.60425	18.42957
0.0955	-50.15259	-19.63806	-5.23682	10.37292	17.42249
0.096	-52.46887	-18.8324	-3.52478	10.37292	10.57434
0.0965	-55.99365	-19.63806	-0.60425	10.57434	-0.10071
0.097	-60.02197	-17.52319	-4.12903	20.44373	-9.46655
0.0975	-53.57666	-21.85364	-1.40991	23.46497	-18.02673
0.098	-52.56958	-19.53735	2.01416	23.66638	-20.44373
0.0985	-52.26746	-16.61682	-3.32336	20.04089	-30.41382
0.099	-46.22498	-19.43665	-7.25098	29.91028	-38.57117
0.0995	-41.08887	-12.38708	-6.2439	25.47913	-48.03772
0.1	-35.65063	-14.09912	-6.64673	22.25647	-44.71436
0.1005	-36.55701	-11.48071	-3.92761	30.2124	-51.26038
0.101	-25.68054	-12.18567	-3.22266	22.35718	-48.23914
0.1015	-18.02673	-12.38708	-3.8269	23.26355	-49.44763
0.102	-10.87646	-3.52478	-0.90637	17.72461	-49.14551
0.1025	-1.91345	-4.12903	2.61841	16.01257	-46.92993
0.103	0	0.50354	-2.11487	8.35876	-43.30444
0.1035	8.15735	1.40991	-0.10071	3.8269	-38.47046
0.104	13.99841	-1.81274	-0.30212	4.73328	-34.34143
0.1045	28.39966	6.44531	-2.71912	-4.22974	-30.31311
0.105	27.09045	7.25098	1.61133	-3.92761	-29.80957
0.1055	35.95276	9.26514	0	-10.97717	-29.80957
0.106	47.23206	8.7616	0.90637	-14.30054	-29.80957
0.1065	44.61365	15.20691	4.12903	-18.02673	-29.80957
0.107	47.43347	11.68213	5.33752	-18.02673	-29.80957
0.1075	44.0094	17.22107	6.14319	-19.23523	-29.80957
0.108	44.0094	11.88354	5.74036	-27.89612	-29.80957
0.1085	41.99524	10.37292	2.01416	-23.8678	-29.80957
0.109	38.974	11.88354	1.3092	-30.11169	-29.80957
0.1095	33.33435	10.57434	-3.12195	-25.68054	-29.80957
0.11	32.32727	10.77576	-3.8269	-23.06213	-29.80957
0.1105	27.09045	5.94177	-4.83398	-28.39966	-29.80957
0.111	20.94727	2.92053	-0.30212	-23.56567	-29.80957
0.1115	11.38	-0.90637	1.61133	-21.85364	-29.80957
0.112	2.11487	-0.70496	-4.12903	-19.03381	-29.80957
0.1125	-8.15735	-0.10071	-4.83398	-11.68213	46.5271
0.113	-14.40125	-3.92761	-0.50354	-15.00549	51.15967
0.1135	-25.47913	-10.0708	1.2085	-5.13611	46.12427
0.114	-29.91028	-7.35168	-1.40991	1.71204	29.50745
0.1145	-30.61523	-12.78992	-6.54602	5.0354	30.81665
0.115	-36.75842	-12.78992	-7.95593	3.7262	23.8678
0.1155	-51.15967	-10.0708	-1.3092	6.14319	15.81116
0.116	-56.90002	-17.22107	-2.92053	14.70337	7.75452
0.1165	-60.52551	-19.13452	-7.35168	18.12744	2.41699
0.117	-64.55383	-15.40833	-3.8269	21.95435	-11.38
0.1175	-57.70569	-15.1062	-2.5177	18.73169	-17.6239
0.118	-51.76392	-12.38708	0.10071	18.63098	-26.78833
0.1185	-53.07312	-11.98425	-0.90637	26.18408	-30.61523
0.119	-48.84338	-13.39417	-2.31628	29.30603	-32.52869
0.1195	-42.8009	-7.95593	-2.92053	29.00391	-38.36975
0.12	-41.39099	-10.77576	0.40283	27.19116	-46.42639
0.1205	-43.00232	-5.53894	-0.40283	25.98267	-49.54834
0.121	-29.70886	-9.06372	-2.81982	25.68054	-53.27454
0.1215	-20.1416	-4.43115	1.40991	27.49329	-54.38232
0.122	-10.17151	-5.63965	-0.20142	16.11328	-51.66321
0.1225	-2.71912	-2.92053	-1.10779	15.60974	-51.66321
0.123	2.41699	-3.92761	-2.92053	11.48071	-39.67896
0.1235	8.05664	6.14319	2.31628	9.36584	-39.27612
0.124	18.42957	0.90637	1.10779	1.40991	-33.13293
0.1245	25.37842	10.0708	-5.63965	2.61841	-30.51453
0.125	29.70886	14.70337	0.40283	-7.35168	-28.29895
0.1255	44.21082	12.5885	0.10071	-11.17859	-17.6239
0.126	44.81506	5.53894	-3.52478	-16.81824	-6.3446
0.1265	44.61365	8.66089	0.10071	-18.32886	-3.52478
0.127	51.26038	9.36584	-2.92053	-18.73169	7.5531
0.1275	43.40515	13.797	-4.12903	-24.47205	12.08496
0.128	46.42639	8.96301	5.63965	-25.177	26.68762
0.1285	47.23206	14.19983	0.50354	-27.6947	27.99683
0.129	42.49878	12.18567	-1.10779	-25.98267	34.34143
0.1295	45.2179	11.68213	-1.51062	-30.91736	37.06055
0.13	34.34143	10.17151	-2.71912	-25.57983	35.95276
0.1305	31.11877	11.07788	-7.5531	-31.01807	41.99524
0.131	26.58691	-1.71204	-5.74036	-27.89612	44.81506
0.1315	12.5885	-1.61133	3.42407	-17.32178	46.32568
0.132	3.92761	-8.96301	-0.90637	-18.42957	47.43347
0.1325	-7.75452	-4.43115	-6.64673	-12.68921	49.34692
0.133	-8.45947	-2.81982	-4.33044	-13.19275	43.70728
0.1335	-22.76001	-1.71204	-1.91345	-8.05664	37.7655
0.134	-23.46497	-5.63965	0.80566	-6.3446	28.70178
0.1345	-28.70178	-8.35876	0	-6.14319	19.13452
0.135	-38.36975	-4.33044	4.63257	3.22266	18.8324
0.1355	-48.03772	-13.797	1.00708	4.73328	19.63806
0.136	-49.44763	-23.56567	0.50354	14.70337	2.92053
0.1365	-53.27454	-14.30054	6.54602	15.30762	-0.10071
0.137	-56.09436	-19.83948	-1.71204	18.42957	-12.18567
0.1375	-52.06604	-16.21399	-6.04248	21.85364	-15.20691
0.138	-50.45471	-22.05505	-3.7262	26.58691	-26.08337
0.1385	-44.61365	-14.30054	-2.01416	23.66638	-36.65771
0.139	-45.52002	-13.29346	-4.53186	25.88196	-36.85913
0.1395	-42.39807	-16.11328	-3.02124	29.00391	-45.72144
0.14	-39.57825	-14.19983	-5.84106	30.61523	-42.8009
0.1405	-36.25488	-11.68213	-5.53894	22.55859	-49.0448
0.141	-26.68762	-7.5531	-4.83398	24.27063	-46.02356
0.1415	-19.94019	-7.35168	-0.20142	18.42957	-51.26038
0.142	-9.97009	-4.33044	-8.66089	14.90479	-52.26746
0.1425	1.40991	-4.73328	0.30212	11.48071	-48.33984
0.143	7.25098	-1.40991	2.11487	15.00549	-53.27454
0.1435	17.52319	7.35168	2.01416	7.75452	-45.2179
0.144	16.3147	7.5531	-1.3092	3.12195	-35.14709
0.1445	25.07629	6.44531	-0.20142	-0.10071	-29.30603
0.145	33.53577	4.33044	-2.61841	-1.00708	-20.34302
0.1455	42.29736	7.04956	-2.5177	-5.84106	-16.01257
0.146	49.34692	16.61682	-5.94177	-12.89062	-5.63965
0.1465	45.3186	7.45239	8.35876	-14.40125	0.50354
0.147	45.2179	18.12744	-3.8269	-17.72461	14.19983
0.1475	44.21082	15.20691	0.60425	-20.1416	19.94019
0.148	41.59241	13.69629	1.81274	-22.45789	23.26355
0.1485	45.01648	20.74585	-2.5177	-25.98267	30.11169
0.149	41.69312	11.98425	5.33752	-27.39258	30.91736
0.1495	45.2179	16.21399	0.80566	-23.36426	37.36267
0.15	30.71594	8.7616	4.12903	-25.07629	39.88037
0.1505	30.41382	-0.60425	4.22974	-20.44373	51.5625
0.151	24.47205	7.75452	8.7616	-29.00391	49.44763
0.1515	8.15735	-3.02124	-1.10779	-19.33594	54.78516
0.152	0.30212	1.10779	-0.20142	-15.00549	47.43347
0.1525	-7.35168	-0.50354	-3.42407	-8.7616	41.18958
0.153	-10.97717	-4.12903	1.3092	-11.78284	44.41223
0.1535	-23.46497	-5.33752	-1.91345	-7.35168	45.3186
0.154	-22.25647	-11.78284	-3.92761	-2.21558	36.15417
0.1545	-28.70178	-12.5885	-1.71204	0.10071	28.80249
0.155	-41.39099	-15.20691	-2.11487	3.22266	18.63098
0.1555	-48.84338	-20.54443	-4.33044	11.98425	15.40833
0.156	-49.24622	-16.21399	-5.53894	16.61682	8.96301
0.1565	-55.99365	-22.25647	-2.61841	14.19983	-0.70496
0.157	-59.21631	-15.40833	-2.01416	25.98267	-10.67505
0.1575	-54.48303	-15.91187	-1.91345	23.66638	-18.02673
0.158	-53.77808	-13.19275	-4.53186	24.37134	-26.08337
0.1585	-56.29578	-13.19275	-1.61133	27.09045	-27.6947
0.159	-48.64197	-12.48779	-0.10071	23.46497	-36.55701
0.1595	-47.03064	-9.56726	-4.33044	21.04797	-40.38391
0.16	-44.71436	-10.77576	-3.52478	23.06213	-49.24622
0.1605	-31.32019	-13.797	-4.73328	26.68762	-51.66321
0.161	-23.8678	-15.40833	-0.10071	27.09045	-53.67737
0.1615	-16.3147	-7.25098	-1.51062	17.6239	-53.47595
0.162	-8.25806	-6.04248	-1.40991	18.53027	-50.85754
0.1625	5.13611	-11.58142	-5.94177	14.70337	-53.07312
0.163	10.37292	-4.22974	-5.13611	5.33752	-44.0094
0.1635	9.97009	4.02832	-6.3446	5.43823	-41.08887
0.164	12.99133	8.15735	-2.5177	6.2439	-34.74426
0.1645	24.37134	3.92761	0.60425	-1.91345	-27.99683
0.165	26.3855	6.54602	-0.40283	-5.74036	-28.70178
0.1655	33.13293	5.53894	4.22974	-12.68921	-15.40833
0.166	46.02356	10.17151	-5.13611	-16.01257	-7.35168
0.1665	42.19666	8.96301	-0.10071	-18.22815	-4.83398
0.167	49.44763	11.38	-0.20142	-19.53735	10.37292
0.1675	47.93701	14.19983	-0.30212	-23.16284	16.81824
0.168	47.23206	12.99133	0.70496	-25.47913	27.89612
0.1685	43.00232	11.58142	2.01416	-23.26355	23.06213
0.169	41.18958	14.80408	-3.52478	-25.07629	36.4563
0.1695	43.70728	3.8269	-0.10071	-25.37842	38.87329
0.17	32.52869	3.92761	0.10071	-23.96851	42.29736
0.1705	32.12585	3.92761	-1.91345	-18.63098	46.12427
0.171	30.31311	0.80566	-5.53894	-25.47913	47.7356
0.1715	14.19983	-3.42407	-1.10779	-25.27771	54.0802
0.172	6.14319	-4.12903	-3.12195	-10.57434	54.88586
0.1725	-3.32336	-7.95593	-3.52478	-11.07788	51.05896
0.173	-13.59558	-8.8623	-4.22974	-7.35168	39.77966
0.1735	-18.53027	-11.68213	3.52478	-12.38708	39.37683
0.174	-26.08337	-14.40125	-5.33752	-6.2439	32.83081
0.1745	-26.08337	-7.35168	-5.53894	-3.62549	27.39258
0.175	-33.43506	-15.71045	-1.40991	1.81274	22.05505
0.1755	-43.00232	-19.03381	-8.7616	12.28638	19.83948
0.176	-52.67029	-17.82532	-0.10071	12.99133	7.45239
0.1765	-55.69153	-10.77576	-1.61133	17.22107	-6.2439
0.177	-60.72693	-14.70337	-1.10779	21.3501	-9.06372
0.1775	-58.30994	-16.21399	3.92761	17.82532	-15.60974
0.178	-52.26746	-11.68213	-0.70496	18.02673	-20.54443
0.1785	-56.69861	-11.68213	0	25.57983	-28.29895
0.179	-56.69861	-17.12036	-2.31628	22.76001	-33.9386
0.1795	-43.40515	-11.98425	-6.2439	24.37134	-40.88745
0.18	-42.49878	-14.90479	-2.71912	27.6947	-49.14551
0.1805	-34.74426	-10.87646	-1.00708	20.34302	-48.64197
0.181	-35.34851	-7.75452	-8.05664	21.45081	-54.88586
0.1815	-21.65222	-2.5177	-1.40991	19.13452	-54.0802
0.182	-11.2793	-0.20142	-2.11487	13.09204	-51.86462
0.1825	-1.10779	6.14319	0.80566	15.40833	-51.66321
0.183	0.40283	-0.70496	-0.10071	12.38708	-45.01648
0.1835	10.77576	4.83398	-1.40991	9.76868	-42.39807
0.184	13.09204	3.22266	-1.91345	2.21558	-35.34851
0.1845	20.64514	0.80566	1.91345	2.81982	-28.29895
0.185	32.32727	6.04248	-1.3092	-5.13611	-28.70178
0.1855	42.09595	6.94885	-2.81982	-9.56726	-14.80408
0.186	44.81506	17.42249	4.53186	-13.19275	-7.15027
0.1865	47.43347	8.96301	0.40283	-18.93311	-0.70496
0.187	52.67029	17.82532	-4.33044	-23.36426	10.27222
0.1875	51.26038	12.28638	-0.20142	-22.25647	18.73169
0.188	50.95825	8.96301	-0.10071	-29.40674	22.55859
0.1885	44.21082	9.16443	-3.92761	-30.2124	26.48621
0.189	37.36267	15.60974	4.33044	-35.54993	35.14709
0.1895	40.78674	9.26514	3.92761	-22.76001	35.54993
0.19	39.27612	6.64673	3.12195	-28.80249	43.20374
0.1905	34.74426	8.8623	0.80566	-29.40674	44.11011
0.191	23.56567	2.21558	-6.94885	-23.36426	44.81506
0.1915	9.36584	-3.02124	-8.8623	-18.93311	51.76392
0.192	2.31628	-3.42407	-2.21558	-21.55151	48.64197
0.1925	-3.02124	-7.75452	-4.63257	-17.52319	47.23206
0.193	-15.00549	-6.54602	-2.31628	-16.81824	42.7002
0.1935	-15.30762	-9.16443	-5.0354	-10.67505	37.26196
0.194	-24.47205	-14.30054	-2.5177	-0.50354	33.53577
0.1945	-33.13293	-15.40833	-6.04248	0.20142	22.76001
0.195	-43.00232	-8.96301	-6.54602	7.35168	23.96851
0.1955	-49.54834	-17.32178	-7.45239	12.38708	17.82532
0.196	-48.64197	-15.40833	-6.3446	14.60266	11.38
0.1965	-52.36816	-19.94019	-12.18567	20.1416	1.71204
0.197	-52.46887	-19.23523	-6.3446	20.44373	-7.35168
0.1975	-55.08728	-22.05505	-5.53894	21.14868	-14.40125
0.198	-50.65613	-15.60974	-1.91345	20.74585	-22.86072
0.1985	-48.74268	-18.73169	1.40991	26.3855	-31.72302
0.199	-49.74976	-14.40125	-2.41699	22.86072	-38.77258
0.1995	-41.79382	-12.78992	-3.02124	25.78125	-37.66479
0.2	-38.57117	-11.78284	4.53186	24.16992	-43.00232
0.2005	-33.33435	-9.86938	-4.02832	20.44373	-45.01648
0.201	-26.48621	-9.97009	-2.31628	19.13452	-39.17542
0.2015	-16.3147	-4.93469	2.21558	15.81116	-45.41931
0.202	-15.30762	-0.70496	-0.70496	11.48071	-52.46887
0.2025	-8.96301	5.13611	5.43823	12.5885	-48.74268
0.203	3.22266	4.12903	2.21558	4.83398	-47.93701
0.2035	13.99841	5.74036	1.00708	4.83398	-47.93701
0.204	17.52319	11.98425	2.01416	4.83398	-47.93701
0.2045	24.16992	12.48779	2.61841	4.83398	-47.93701
0.205	30.01099	8.66089	-0.10071	4.83398	-47.93701
0.2055	41.29028	13.19275	1.3092	4.83398	-47.93701
0.206	44.81506	10.57434	-1.91345	4.83398	-47.93701
0.2065	48.33984	14.19983	1.2085	4.83398	-47.93701
0.207	49.44763	11.2793	1.3092	4.83398	-47.93701
0.2075	50.85754	12.68921	-0.20142	4.83398	-47.93701
0.208	39.88037	13.29346	-1.10779	4.83398	-47.93701
0.2085	39.17542	8.35876	-0.90637	4.83398	-47.93701
0.209	39.57825	6.14319	0.50354	4.83398	-47.93701
0.2095	37.86621	6.54602	4.43115	4.83398	-47.93701
0.21	31.72302	5.0354	0.70496	4.83398	-47.93701
0.2105	24.67346	4.22974	-0.90637	-25.98267	45.72144
0.211	20.44373	-3.02124	-2.21558	-23.56567	49.34692
0.2115	8.15735	-1.00708	-0.50354	-16.41541	51.5625
0.212	2.5177	-3.12195	1.00708	-17.42249	44.81506
0.2125	-6.2439	-1.61133	3.7262	-10.0708	47.7356
0.213	-18.73169	-3.12195	6.04248	-7.85522	42.09595
0.2135	-19.33594	-12.89062	-0.10071	-7.5531	33.83789
0.214	-22.76001	-11.2793	-6.14319	-0.10071	35.85205
0.2145	-28.50037	-13.89771	0.50354	-0.90637	25.78125
0.215	-38.47046	-14.19983	-5.13611	-3.42407	20.44373
0.2155	-51.66321	-22.45789	-0.60425	10.57434	14.19983
0.216	-52.06604	-14.30054	-3.7262	8.05664	2.41699
0.2165	-56.19507	-20.94727	-3.52478	17.92603	-3.52478
0.217	-61.53259	-20.94727	-6.74744	19.63806	-12.48779
0.2175	-52.26746	-17.6239	-1.91345	22.86072	-17.6239
0.218	-50.05188	-14.60266	-1.61133	25.88196	-25.47913
0.2185	-53.87878	-14.70337	-3.62549	24.06921	-25.07629
0.219	-50.45471	-12.38708	-5.43823	23.8678	-32.7301
0.2195	-43.80798	-5.74036	-4.12903	23.46497	-40.38391
0.22	-39.47754	-12.18567	-2.5177	20.84656	-43.40515
0.2205	-26.78833	-8.05664	-8.96301	18.02673	-36.75842
0.221	-32.12585	-8.15735	-1.3092	22.05505	-43.10303
0.2215	-17.01965	-1.61133	-8.96301	22.76001	-50.354
0.222	-13.39417	-3.92761	-0.30212	10.67505	-51.86462
0.2225	7.95593	4.93469	-5.33752	11.38	-46.22498
0.223	7.25098	0.10071	-1.00708	7.95593	-43.80798
0.2235	14.90479	5.94177	-4.12903	3.12195	-46.22498
0.224	15.40833	7.35168	-1.10779	-2.61841	-39.27612
0.2245	23.26355	6.54602	2.92053	-7.5531	-32.52869
0.225	29.30603	11.68213	3.02124	-1.91345	-26.28479
0.2255	40.98816	9.86938	5.23682	-8.35876	-20.1416
0.226	45.3186	9.66797	4.33044	-22.86072	-13.99841
0.2265	42.8009	7.75452	3.92761	-20.84656	-1.10779
0.227	47.23206	16.3147	-0.70496	-18.02673	8.7616
0.2275	44.81506	16.81824	-2.71912	-23.46497	12.38708
0.228	47.23206	11.98425	4.43115	-18.63098	19.63806
0.2285	41.29028	11.88354	3.52478	-19.94019	29.70886
0.229	41.08887	7.85522	-3.92761	-25.07629	32.62939
0.2295	34.44214	16.21399	-2.71912	-26.08337	38.974
0.23	29.10461	8.25806	-0.90637	-27.6947	44.41223
0.2305	21.3501	8.66089	-5.63965	-25.177	50.2533
0.231	21.14868	8.15735	-4.93469	-25.68054	41.69312
0.2315	17.12036	2.81982	0.30212	-25.88196	46.42639
0.232	1.10779	-1.40991	1.71204	-12.5885	43.80798
0.2325	-4.93469	-5.74036	-0.90637	-16.21399	46.72852
0.233	-11.38	-9.66797	-3.8269	-16.71753	39.17542
0.2335	-18.8324	-13.59558	-1.51062	-11.07788	39.47754
0.234	-23.56567	-6.74744	-3.7262	-1.10779	29.70886
0.2345	-30.31311	-20.74585	4.12903	-3.92761	27.89612
0.235	-38.16833	-16.91895	-4.12903	6.54602	19.03381
0.2355	-41.29028	-16.01257	-7.45239	6.54602	19.63806
0.236	-54.0802	-13.09204	-5.13611	9.36584	7.65381
0.2365	-58.91418	-16.3147	-4.53186	19.63806	-4.12903
0.237	-61.83472	-14.60266	0.30212	18.22815	-10.87646
0.2375	-54.48303	-19.33594	-4.12903	19.03381	-23.8678
0.238	-55.08728	-18.63098	-0.10071	23.26355	-27.39258
0.2385	-55.08728	-16.21399	4.22974	18.22815	-32.42798
0.239	-55.08728	-20.44373	3.22266	19.73877	-38.974
0.2395	-55.08728	-5.94177	-0.10071	20.44373	-40.58533
0.24	-55.08728	-16.01257	-1.2085	23.16284	-43.20374
0.2405	-55.08728	-13.59558	1.2085	17.42249	-48.64197
0.241	-55.08728	-13.69629	0.30212	27.89612	-55.89294
0.2415	-55.08728	-4.93469	-1.71204	24.97559	-51.36108
0.242	-55.08728	-7.75452	-4.93469	11.48071	-55.49011
0.2425	-55.08728	-8.66089	-1.91345	9.36584	-52.26746
0.243	-55.08728	-2.92053	-0.50354	9.76868	-45.3186
0.2435	-55.08728	1.91345	-0.30212	4.93469	-41.39099
0.244	-55.08728	8.05664	-0.50354	1.40991	-35.2478
0.2445	-55.08728	8.8623	-2.41699	-0.10071	-30.41382
0.245	-55.08728	7.75452	-3.92761	-4.73328	-26.3855
0.2455	43.00232	10.37292	-8.15735	-11.38	-18.02673
0.246	38.26904	8.56018	-3.42407	-17.52319	-7.04956
0.2465	47.43347	7.35168	-0.10071	-25.88196	-1.61133
0.247	51.36108	12.28638	3.32336	-23.8678	1.61133
0.2475	50.85754	9.36584	2.92053	-20.94727	12.99133
0.248	42.8009	10.37292	-3.52478	-20.1416	25.07629
0.2485	48.23914	11.78284	-4.73328	-22.35718	30.31311
0.249	40.88745	8.96301	-1.3092	-22.05505	32.93152
0.2495	41.4917	4.93469	-6.14319	-23.96851	32.32727
0.25	32.32727	3.7262	-2.31628	-23.36426	44.11011
0.2505	25.27771	-0.50354	-8.66089	-29.30603	47.23206
0.251	19.63806	0.90637	-6.94885	-26.88904	40.1825
0.2515	9.16443	1.40991	-1.61133	-20.54443	53.67737
0.252	3.22266	-1.81274	2.41699	-18.32886	42.59949
0.2525	-5.53894	-5.43823	-1.40991	-10.77576	45.2179
0.253	-8.56018	-9.46655	-5.0354	-11.48071	42.49878
0.2535	-25.07629	-12.28638	2.41699	-6.2439	38.36975
0.254	-32.7301	-12.18567	5.43823	-4.73328	31.52161
0.2545	-35.34851	-14.60266	-0.50354	-2.11487	29.20532
0.255	-37.96692	-10.77576	-10.77576	-0.90637	17.92603
0.2555	-46.5271	-11.88354	0.10071	12.99133	11.58142
0.256	-55.69153	-17.92603	-7.04956	8.56018	3.7262
0.2565	-54.58374	-21.55151	-5.33752	19.13452	-2.92053
0.257	-59.71985	-19.13452	-2.31628	21.85364	-13.797
0.2575	-54.0802	-20.24231	-8.35876	18.73169	-24.77417
0.258	-55.2887	-19.33594	-6.3446	15.40833	-26.08337
0.2585	-51.86462	-17.72461	-6.94885	23.26355	-25.68054
0.259	-46.82922	-15.60974	-6.14319	21.65222	-33.9386
0.2595	-40.08179	-6.64673	-4.63257	23.96851	-39.47754
0.26	-38.77258	-16.01257	-1.71204	21.04797	-46.22498
0.2605	-38.26904	-8.7616	-3.52478	19.94019	-48.94409
0.261	-30.81665	-10.67505	-2.71912	21.65222	-55.2887
0.2615	-17.6239	1.61133	-1.40991	18.73169	-52.46887
0.262	-6.44531	-6.3446	0.80566	10.37292	-50.85754
0.2625	0.20142	-3.42407	0.10071	11.58142	-49.44763
0.263	4.83398	2.92053	1.2085	6.14319	-45.52002
0.2635	14.60266	6.54602	2.61841	6.74744	-37.56409
0.264	20.1416	4.83398	-0.90637	2.71912	-40.1825
0.2645	25.78125	2.92053	1.10779	-1.91345	-31.52161
0.265	30.11169	9.97009	2.21558	-6.84814	-21.45081
0.2655	41.59241	13.89771	3.22266	-7.15027	-16.61682
0.266	47.03064	11.68213	0	-16.21399	-6.14319
0.2665	50.65613	10.77576	-4.73328	-18.02673	-5.13611
0.267	49.64905	11.78284	0.10071	-19.23523	6.54602
0.2675	51.5625	6.94885	5.13611	-21.45081	22.25647
0.268	50.2533	1.2085	3.52478	-26.48621	35.34851
0.2685	49.34692	5.23682	6.64673	-26.48621	33.03223
0.269	43.60657	11.78284	5.43823	-29.60815	35.44922
0.2695	42.59949	3.32336	-6.04248	-31.21948	37.86621
0.27	32.83081	1.40991	-0.90637	-28.50037	47.03064
0.2705	25.47913	0.80566	-0.20142	-27.6947	50.85754
0.271	20.84656	3.32336	-4.93469	-24.06921	47.8363
0.2715	9.56726	3.62549	-0.60425	-22.86072	49.14551
0.272	-0.10071	-1.3092	-1.91345	-18.12744	52.46887
0.2725	-7.04956	-5.53894	-6.54602	-13.59558	47.63489
0.273	-13.59558	-4.12903	-3.52478	-13.69629	44.21082
0.2735	-17.92603	-5.63965	-0.50354	-6.74744	37.36267
0.274	-29.91028	-7.95593	4.43115	-8.66089	34.03931
0.2745	-36.05347	-7.5531	-5.13611	-5.74036	31.72302
0.275	-36.75842	-5.53894	-5.33752	0.70496	20.24231
0.2755	-48.84338	-16.61682	-0.70496	6.84814	14.50195
0.276	-57.9071	-18.12744	2.81982	9.66797	9.36584
0.2765	-57.40356	-15.20691	3.42407	10.97717	-5.53894
0.277	-66.36658	-15.60974	3.02124	16.81824	-12.78992
0.2775	-64.95667	-14.60266	5.63965	19.83948	-18.42957
0.278	-55.79224	-16.51611	-3.02124	23.46497	-24.97559
0.2785	-54.28162	-14.40125	-0.90637	23.16284	-30.31311
0.279	-49.64905	-16.41541	-2.61841	15.40833	-39.98108
0.2795	-47.13135	-13.797	-1.40991	23.26355	-39.17542
0.28	-41.59241	-13.19275	-4.63257	25.68054	-42.8009
0.2805	-31.72302	-14.40125	-3.02124	24.27063	-43.80798
0.281	-23.66638	-7.5531	0.70496	27.39258	-48.23914
0.2815	-16.41541	-1.40991	1.10779	17.52319	-49.34692
0.282	-5.13611	1.91345	-3.12195	20.84656	-54.38232
0.2825	3.32336	0	-5.63965	11.88354	-48.03772
0.283	3.7262	4.53186	-0.60425	14.80408	-41.79382
0.2835	11.58142	2.92053	2.31628	3.42407	-40.78674
0.284	17.22107	7.65381	-1.40991	8.7616	-31.11877
0.2845	25.78125	5.94177	6.64673	-0.50354	-28.19824
0.285	32.83081	9.46655	6.54602	-12.28638	-22.05505
0.2855	37.36267	7.35168	-2.71912	-10.97717	-12.5885
0.286	44.61365	11.07788	3.7262	-18.02673	-3.8269
0.2865	44.21082	10.27222	3.22266	-24.06921	2.71912
0.287	48.64197	6.14319	-2.61841	-25.98267	10.27222
0.2875	47.93701	4.33044	0.40283	-25.27771	14.80408
0.288	48.03772	13.59558	-0.30212	-27.49329	27.49329
0.2885	38.36975	9.86938	-0.30212	-25.68054	33.53577
0.289	35.04639	4.73328	-1.81274	-29.70886	33.33435
0.2895	38.67188	4.53186	-0.70496	-27.6947	40.98816
0.29	39.27612	6.84814	-4.53186	-27.79541	42.39807
0.2905	32.62939	3.42407	2.31628	-29.40674	46.82922
0.291	18.12744	0.50354	0.50354	-26.08337	50.55542
0.2915	11.17859	0.40283	-2.41699	-24.47205	47.93701
0.292	1.61133	-7.35168	-1.10779	-13.39417	50.55542
0.2925	-2.71912	1.40991	-3.12195	-15.1062	49.24622
0.293	-4.02832	-6.2439	-3.92761	-7.5531	42.8009
0.2935	-18.8324	-14.09912	-1.10779	-10.27222	39.57825
0.294	-20.44373	-17.12036	1.71204	-3.42407	31.82373
0.2945	-26.48621	-13.69629	-5.84106	1.2085	29.91028
0.295	-37.06055	-20.54443	-2.31628	0.80566	25.07629
0.2955	-45.62073	-13.797	-4.33044	8.8623	19.03381
0.296	-50.15259	-14.80408	-4.33044	5.53894	13.19275
0.2965	-52.46887	-18.22815	-2.11487	14.70337	-4.63257
0.297	-51.66321	-12.38708	-0.60425	20.04089	-12.78992
0.2975	-56.09436	-11.88354	-7.45239	22.55859	-22.86072
0.298	-47.03064	-16.21399	-9.97009	26.48621	-23.06213
0.2985	-46.92993	-12.78992	-4.53186	25.177	-31.62231
0.299	-52.46887	-14.09912	-3.02124	29.10461	-40.48462
0.2995	-47.63489	-8.56018	-3.92761	23.66638	-44.31152
0.3	-38.77258	-8.45947	0.30212	22.76001	-39.57825
0.3005	-38.67188	-9.46655	-1.51062	23.16284	-41.29028
0.301	-29.70886	-4.12903	-0.50354	21.85364	-50.55542
0.3015	-23.06213	-7.75452	4.02832	14.09912	-54.48303
0.302	-11.88354	-4.33044	-0.60425	6.94885	-53.47595
0.3025	-3.52478	1.71204	-3.52478	13.39417	-47.43347
0.303	0.70496	1.40991	-2.11487	8.35876	-48.33984
0.3035	15.00549	11.98425	-2.5177	4.73328	-35.14709
0.304	21.04797	2.61841	-0.70496	-2.11487	-31.52161
0.3045	25.68054	7.45239	2.92053	-5.94177	-31.11877
0.305	35.14709	9.66797	-0.90637	-7.95593	-23.26355
0.3055	42.09595	20.24231	2.41699	-15.40833	-18.42957
0.306	43.50586	9.76868	11.38	-14.19983	-7.15027
0.3065	48.64197	15.00549	3.52478	-26.48621	4.33044
0.307	50.85754	13.49487	7.95593	-19.63806	13.89771
0.3075	40.78674	12.99133	2.71912	-25.07629	22.86072
0.308	38.06763	12.68921	2.61841	-22.35718	26.48621
0.3085	43.40515	17.42249	1.71204	-15.1062	26.48621
0.309	37.96692	10.17151	-1.61133	-18.73169	26.48621
0.3095	31.52161	10.0708	1.2085	-27.49329	26.48621
0.31	36.75842	3.22266	3.22266	-25.68054	26.48621
0.3105	21.95435	5.33752	-0.50354	-23.06213	26.48621
0.311	19.43665	3.32336	-2.31628	-23.66638	26.48621
0.3115	8.15735	5.74036	-6.2439	-23.96851	26.48621
0.312	-0.30212	-3.8269	-4.33044	-20.04089	26.48621
0.3125	-4.63257	3.22266	-5.0354	-17.72461	26.48621
0.313	-4.63257	-6.44531	2.31628	-14.80408	26.48621
0.3135	-19.94019	-9.97009	-3.12195	-7.85522	26.48621
0.314	-23.36426	-8.56018	-1.10779	-1.00708	26.48621
0.3145	-31.92444	-19.83948	-4.53186	0.70496	26.48621
0.315	-37.56409	-12.18567	2.31628	6.14319	26.48621
0.3155	-53.67737	-21.95435	-11.07788	8.05664	22.96143
0.316	-59.61914	-20.64514	-2.11487	12.78992	11.17859
0.3165	-58.20923	-19.43665	-6.3446	12.99133	1.81274
0.317	-58.61206	-15.81116	-0.10071	19.94019	-10.0708
0.3175	-55.08728	-18.73169	-7.04956	23.06213	-20.44373
0.318	-53.77808	-18.93311	0.30212	18.42957	-29.00391
0.3185	-51.05896	-14.30054	1.91345	26.08337	-35.75134
0.319	-48.13843	-15.50903	0.30212	25.78125	-34.24072
0.3195	-45.72144	-14.40125	-1.10779	21.75293	-32.32727
0.32	-44.0094	-10.77576	2.31628	20.34302	-39.57825
0.3205	-31.21948	-8.7616	-1.81274	19.73877	-45.82214
0.321	-27.99683	-9.16443	-0.60425	27.6947	-46.02356
0.3215	-16.51611	-5.0354	-6.94885	21.85364	-50.2533
0.322	-4.93469	-2.71912	-7.15027	16.41541	-49.0448
0.3225	3.42407	-1.71204	-2.31628	21.85364	-44.11011
0.323	3.32336	0.80566	3.8269	8.25806	-36.95984
0.3235	16.81824	4.43115	3.92761	2.92053	-30.51453
0.324	18.42957	7.35168	1.2085	5.33752	-32.32727
0.3245	31.32019	7.75452	2.21558	-3.92761	-22.76001
0.325	34.64355	7.75452	-1.91345	-2.31628	-22.86072
0.3255	36.85913	8.7616	1.81274	-11.17859	-10.37292
0.326	42.7002	11.07788	-0.10071	-15.91187	-4.22974
0.3265	45.2179	11.78284	-0.30212	-19.83948	1.10779
0.327	48.84338	17.72461	4.73328	-18.63098	14.40125
0.3275	52.26746	15.20691	4.22974	-21.55151	21.24939
0.328	51.46179	12.38708	1.00708	-29.00391	32.42798
0.3285	43.00232	7.25098	-0.60425	-27.49329	37.26196
0.329	38.06763	8.56018	-2.31628	-24.67346	38.47046
0.3295	38.06763	6.14319	-0.10071	-28.39966	41.99524
0.33	39.07471	8.25806	0.10071	-26.48621	44.51294
0.3305	27.09045	7.15027	-3.22266	-26.48621	47.13135
0.331	23.56567	2.71912	-2.71912	-26.88904	50.65613
0.3315	13.99841	3.62549	0.20142	-20.94727	52.97241
0.332	2.71912	2.31628	-0.90637	-13.99841	49.24622
0.3325	-9.66797	0.20142	-1.3092	-10.17151	49.74976
0.333	-11.2793	-5.94177	-0.70496	-6.84814	42.49878
0.3335	-20.84656	-10.17151	-3.12195	-1.10779	39.57825
0.334	-32.32727	-22.05505	-5.84106	-5.43823	38.974
0.3345	-33.13293	-20.54443	-3.8269	-0.30212	25.07629
0.335	-36.4563	-17.22107	-2.11487	-0.80566	16.11328
0.3355	-48.54126	-17.72461	-3.02124	10.27222	15.40833
0.336	-56.29578	-21.14868	-4.73328	12.48779	7.75452
0.3365	-56.79932	-19.63806	-2.5177	13.39417	-0.20142
0.337	-55.08728	-15.60974	0.60425	15.00549	-8.35876
0.3375	-54.18091	-17.01965	-2.71912	16.61682	-22.45789
0.338	-49.34692	-18.02673	-2.31628	19.53735	-25.68054
0.3385	-46.72852	-13.39417	-0.70496	19.03381	-35.65063
0.339	-49.0448	-17.82532	-2.01416	35.14709	-35.44922
0.3395	-50.15259	-12.99133	-2.71912	27.89612	-40.98816
0.34	-41.18958	-15.00549	-4.63257	27.99683	-45.41931
0.3405	-33.33435	-11.38	0.20142	21.55151	-47.63489
0.341	-31.62231	-8.8623	-7.95593	21.04797	-48.33984
0.3415	-19.94019	-4.33044	-4.22974	20.24231	-50.95825
0.342	-6.54602	-2.5177	-0.10071	10.47363	-48.94409
0.3425	-1.61133	2.31628	-3.12195	5.63965	-46.02356
0.343	10.57434	2.41699	1.51062	7.5531	-46.62781
0.3435	13.39417	4.43115	-1.91345	7.25098	-34.74426
0.344	17.12036	0.20142	-6.14319	-1.91345	-34.84497
0.3445	29.10461	6.74744	-2.92053	-1.3092	-30.31311
0.345	36.85913	9.06372	2.01416	-8.05664	-21.65222
0.3455	42.59949	9.66797	2.21558	-9.06372	-19.53735
0.346	43.80798	12.28638	3.02124	-11.58142	-9.16443
0.3465	50.354	20.04089	-1.91345	-20.84656	-0.10071
0.347	51.76392	13.99841	0.10071	-18.22815	7.5531
0.3475	46.12427	11.58142	-1.61133	-19.23523	18.8324
0.348	44.0094	7.85522	0.90637	-18.8324	22.86072
0.3485	44.21082	11.07788	7.15027	-25.68054	27.29187
0.349	37.7655	8.45947	1.71204	-24.77417	31.32019
0.3495	44.41223	7.25098	-2.81982	-28.60107	40.88745
0.35	33.83789	10.17151	4.93469	-29.50745	39.88037
0.3505	31.11877	7.15027	-1.00708	-28.19824	50.55542
0.351	22.05505	1.3092	-3.7262	-27.89612	44.21082
0.3515	7.35168	-3.7262	-2.21558	-25.88196	48.13843
0.352	-0.80566	-2.81982	1.2085	-20.24231	45.2179
0.3525	-12.08496	-0.50354	-5.13611	-15.71045	39.88037
0.353	-14.40125	-5.74036	1.10779	-7.45239	39.77966
0.3535	-22.86072	-13.89771	-3.22266	-7.5531	36.55701
0.354	-25.78125	-11.07788	-2.01416	-5.13611	29.70886
0.3545	-34.03931	-9.36584	-5.13611	-4.33044	23.96851
0.355	-39.77966	-15.40833	-2.71912	3.52478	20.04089
0.3555	-54.68445	-15.91187	-7.45239	15.50903	9.66797
0.356	-54.38232	-18.02673	-2.01416	18.42957	-0.80566
0.3565	-45.72144	-20.84656	-2.11487	17.82532	0
0.357	-51.66321	-21.04797	-5.74036	27.49329	-17.12036
0.3575	-49.64905	-15.91187	-6.14319	26.08337	-28.29895
0.358	-46.02356	-14.90479	-5.84106	26.68762	-29.40674
0.3585	-46.82922	-16.01257	-1.3092	27.29187	-37.26196
0.359	-43.60657	-21.85364	-7.15027	22.6593	-38.67188
0.3595	-40.78674	-18.02673	-4.93469	20.04089	-43.30444
0.36	-35.14709	-16.41541	-3.12195	25.68054	-44.0094
0.3605	-29.00391	-10.77576	-0.70496	21.45081	-42.59949
0.361	-20.34302	-7.15027	-9.16443	22.96143	-48.84338
0.3615	-9.97009	-8.56018	-1.91345	17.82532	-53.47595
0.362	-6.3446	-0.60425	-5.94177	17.12036	-50.2533
0.3625	4.63257	-1.00708	-7.95593	13.49487	-49.24622
0.363	9.76868	-0.10071	2.5177	10.57434	-42.7002
0.3635	10.97717	2.01416	4.02832	7.25098	-40.68604
0.364	24.47205	6.14319	-2.5177	-0.10071	-33.53577
0.3645	28.9032	8.25806	-3.62549	-2.71912	-30.51453
0.365	31.72302	10.17151	-1.91345	-6.74744	-27.09045
0.3655	35.85205	13.99841	0.60425	-12.48779	-16.71753
0.366	50.2533	12.5885	1.61133	-13.59558	-6.2439
0.3665	54.98657	18.12744	3.12195	-15.00549	-4.43115
0.367	51.76392	16.91895	5.84106	-18.12744	10.77576
0.3675	51.96533	18.12744	2.21558	-15.71045	14.60266
0.368	46.02356	15.20691	3.12195	-21.75293	19.33594
0.3685	42.39807	16.81824	3.52478	-26.88904	27.6947
0.369	43.20374	9.06372	9.46655	-28.70178	32.7301
0.3695	43.40515	7.45239	7.95593	-35.85205	36.4563
0.37	32.52869	9.76868	5.53894	-25.47913	41.59241
0.3705	24.87488	8.66089	-1.10779	-23.56567	43.20374
0.371	14.60266	-0.50354	7.95593	-24.16992	43.80798
0.3715	6.84814	-0.60425	4.53186	-23.26355	48.03772
0.372	-4.12903	0.60425	-0.50354	-14.70337	47.23206
0.3725	-8.25806	-8.35876	-0.30212	-4.73328	42.09595
0.373	-14.19983	-2.5177	6.84814	-12.48779	41.29028
0.3735	-18.8324	-4.63257	2.11487	-6.3446	36.65771
0.374	-32.83081	-4.33044	-1.71204	-0.50354	26.58691
0.3745	-32.7301	-12.89062	-1.2085	2.71912	27.09045
0.375	-38.06763	-10.97717	-11.17859	2.41699	16.11328
0.3755	-46.22498	-14.90479	-1.81274	8.56018	9.26514
0.376	-51.26038	-14.30054	-1.51062	11.78284	-1.91345
0.3765	-57.40356	-18.42957	-2.5177	10.97717	-3.8269
0.377	-59.41772	-19.63806	-0.10071	14.19983	-16.91895
0.3775	-52.26746	-19.53735	-5.53894	23.16284	-20.64514
0.378	-50.2533	-16.81824	-3.7262	22.96143	-26.28479
0.3785	-50.2533	-13.797	-5.84106	22.45789	-33.03223
0.379	-50.2533	-13.797	-1.51062	21.55151	-41.39099
0.3795	-50.2533	-17.42249	-5.13611	26.68762	-47.8363
0.38	-50.2533	-11.58142	-3.42407	23.06213	-47.23206
0.3805	-50.2533	-8.7616	-6.14319	23.8678	-49.0448
0.381	-50.2533	-8.05664	-4.83398	20.94727	-55.59082
0.3815	-50.2533	-4.53186	-0.50354	19.73877	-49.24622
0.382	-50.2533	-4.43115	-5.33752	12.99133	-53.87878
0.3825	-50.2533	-1.51062	-2.61841	12.89062	-52.46887
0.383	-50.2533	2.21558	-3.12195	10.77576	-48.23914
0.3835	-50.2533	4.02832	2.01416	7.45239	-41.08887
0.384	-50.2533	2.5177	-0.50354	1.51062	-37.06055
0.3845	-50.2533	4.93469	1.71204	-2.92053	-32.52869
0.385	-50.2533	12.99133	2.92053	-7.25098	-27.59399
0.3855	46.82922	14.09912	0.20142	-16.01257	-20.54443
0.386	50.45471	14.80408	-0.40283	-19.23523	-17.12036
0.3865	54.0802	8.15735	0.90637	-19.13452	-6.64673
0.387	54.48303	8.66089	1.3092	-18.63098	7.5531
0.3875	46.12427	9.36584	-2.11487	-26.48621	10.97717
0.388	41.08887	13.19275	-0.90637	-24.16992	19.03381
0.3885	44.91577	12.08496	-2.11487	-27.29187	17.22107
0.389	36.25488	9.56726	4.43115	-30.31311	31.92444
0.3895	39.17542	5.74036	2.5177	-33.53577	37.96692
0.39	30.01099	12.28638	7.65381	-29.40674	44.91577
0.3905	24.16992	7.95593	6.64673	-21.85364	40.2832
0.391	17.42249	4.53186	2.61841	-23.66638	39.17542
0.3915	5.53894	1.91345	1.71204	-26.3855	46.42639
0.392	-5.13611	2.92053	0.30212	-15.81116	43.70728
0.3925	-11.98425	-0.70496	-3.8269	-20.04089	48.13843
0.393	-12.08496	-3.8269	-6.3446	-10.47363	39.37683
0.3935	-24.57275	-8.7616	-0.40283	-6.44531	37.96692
0.394	-21.75293	-9.97009	-2.01416	-5.43823	28.70178
0.3945	-37.56409	-11.78284	-1.10779	5.23682	26.98975
0.395	-42.39807	-11.78284	3.52478	6.54602	22.6593
0.3955	-53.97949	-18.63098	5.53894	7.5531	8.56018
0.396	-52.46887	-15.91187	2.31628	21.65222	4.22974
0.3965	-56.69861	-26.18408	-0.40283	23.06213	-8.56018
0.397	-56.79932	-21.95435	-4.12903	20.44373	-19.94019
0.3975	-49.64905	-22.76001	-5.13611	22.45789	-28.60107
0.398	-42.59949	-16.51611	-3.7262	19.33594	-28.19824
0.3985	-44.51294	-13.99841	-0.50354	11.88354	-34.54285
0.399	-44.61365	-11.98425	-6.2439	24.67346	-39.57825
0.3995	-35.44922	-14.30054	-8.8623	27.49329	-43.20374
0.4	-35.34851	-9.06372	-3.8269	26.3855	-49.44763
0.4005	-29.80957	-7.15027	-4.53186	23.46497	-54.28162
0.401	-25.07629	-5.94177	-7.35168	21.45081	-57.50427
0.4015	-18.8324	-4.12903	-3.92761	13.29346	-55.49011
0.402	-2.31628	-4.33044	0.10071	15.20691	-52.06604
0.4025	7.75452	-1.40991	-7.35168	13.49487	-50.55542
0.403	8.8623	-0.10071	-4.63257	9.76868	-46.32568
0.4035	22.25647	-5.94177	-5.53894	4.02832	-41.18958
0.404	29.50745	-1.81274	-1.51062	1.3092	-37.46338
0.4045	24.47205	-0.90637	-0.10071	-1.81274	-31.62231
0.405	35.85205	7.25098	-0.90637	-4.73328	-26.58691
0.4055	36.15417	12.48779	-3.12195	-10.67505	-19.03381
0.406	32.32727	15.00549	0.70496	-16.01257	-12.38708
0.4065	33.83789	16.21399	3.02124	-21.75293	-6.94885
0.407	40.38391	12.28638	5.13611	-23.26355	5.63965
0.4075	42.90161	14.60266	-0.90637	-21.45081	15.81116
0.408	40.98816	14.19983	-1.3092	-26.68762	24.27063
0.4085	40.2832	12.99133	-0.70496	-26.98975	30.71594
0.409	36.15417	6.2439	2.31628	-24.47205	32.52869
0.4095	29.00391	12.99133	5.94177	-23.46497	35.2478
0.41	29.91028	11.2793	-2.92053	-27.29187	41.59241
0.4105	29.60815	3.52478	2.01416	-28.39966	40.08179
0.411	12.5885	1.71204	-3.32336	-29.91028	43.20374
0.4115	10.97717	-3.7262	-3.02124	-20.64514	44.0094
0.412	-1.51062	-0.40283	3.52478	-14.40125	47.43347
0.4125	-7.65381	-4.43115	-2.71912	-15.81116	38.47046
0.413	-16.51611	-4.12903	-3.02124	-16.91895	38.26904
0.4135	-23.06213	-10.67505	-3.42407	-4.83398	35.44922
0.414	-31.72302	-15.20691	0.60425	-3.42407	31.82373
0.4145	-40.98816	-13.39417	-6.74744	-2.5177	23.16284
0.415	-44.41223	-14.40125	-0.60425	8.25806	17.42249
0.4155	-54.88586	-18.63098	-2.41699	13.89771	10.37292
0.416	-55.59082	-14.80408	-6.44531	8.35876	-0.20142
0.4165	-58.10852	-14.19983	-4.02832	19.53735	-7.75452
0.417	-58.71277	-12.78992	-3.52478	24.47205	-11.07788
0.4175	-51.96533	-7.95593	-7.75452	24.87488	-20.04089
0.418	-46.02356	-11.88354	-7.95593	26.68762	-24.27063
0.4185	-48.23914	-10.77576	-3.7262	23.06213	-31.62231
0.419	-42.09595	-10.97717	-5.43823	25.07629	-38.87329
0.4195	-45.82214	-13.797	-0.60425	30.31311	-40.98816
0.42	-39.77966	-7.85522	-2.01416	22.05505	-43.80798
0.4205	-33.33435	-10.57434	-9.66797	22.76001	-51.26038
0.421	-25.47913	-7.5531	3.42407	26.28479	-52.26746
0.4215	-15.40833	-6.3446	-0.60425	19.73877	-51.05896
0.422	-4.73328	-0.50354	-4.93469	17.12036	-51.66321
0.4225	5.43823	-4.12903	-2.71912	10.57434	-45.41931
0.423	12.78992	0.70496	3.22266	9.97009	-48.74268
0.4235	16.41541	11.07788	2.71912	1.81274	-44.51294
0.424	24.47205	9.26514	-0.60425	-4.83398	-35.95276
0.4245	21.45081	8.56018	-0.60425	-10.77576	-35.14709
0.425	30.81665	4.93469	-2.11487	-8.05664	-23.66638
0.4255	47.33276	9.06372	3.02124	-13.29346	-18.63098
0.426	49.34692	15.20691	1.3092	-17.22107	-7.5531
0.4265	50.354	11.48071	-5.94177	-18.22815	0.80566
0.427	52.06604	11.98425	-1.61133	-25.37842	15.40833
0.4275	43.70728	12.89062	-1.51062	-26.08337	19.63806
0.428	47.53418	16.11328	0.10071	-30.11169	22.35718
0.4285	42.29736	14.90479	5.53894	-21.24939	28.60107
0.429	38.36975	11.2793	3.7262	-26.3855	31.01807
0.4295	39.37683	0.50354	3.42407	-25.07629	43.20374
0.43	31.11877	8.56018	1.61133	-27.29187	38.16833
0.4305	28.50037	5.23682	-3.52478	-28.9032	46.42639
0.431	22.25647	6.44531	-0.10071	-26.58691	46.42639
0.4315	12.5885	1.71204	-0.40283	-19.33594	46.5271
0.432	6.14319	-1.61133	4.22974	-21.24939	42.09595
0.4325	-8.8623	-1.10779	2.71912	-15.91187	39.07471
0.433	-10.77576	-10.57434	4.53186	-10.97717	39.77966
0.4335	-25.27771	-5.74036	0	-5.33752	38.36975
0.434	-27.79541	-10.97717	-5.33752	1.10779	37.06055
0.4345	-31.82373	-12.38708	4.53186	-0.50354	22.6593
0.435	-47.43347	-16.91895	2.5177	-0.10071	26.88904
0.4355	-49.24622	-14.70337	1.10779	12.28638	13.19275
0.436	-54.98657	-11.17859	1.10779	14.19983	5.94177
0.4365	-56.69861	-13.19275	-3.62549	18.93311	-3.02124
0.437	-52.8717	-15.60974	-3.02124	20.04089	-4.43115
0.4375	-50.2533	-12.38708	-10.57434	20.44373	-17.32178
0.438	-53.07312	-12.5885	-9.46655	22.86072	-27.29187
0.4385	-49.95117	-13.89771	-5.43823	20.74585	-32.22656
0.439	-40.48462	-15.20691	-6.74744	23.66638	-28.39966
0.4395	-47.03064	-14.80408	-3.52478	21.45081	-34.74426
0.44	-37.06055	-13.19275	0.10071	24.57275	-44.11011
0.4405	-29.70886	-15.20691	-5.74036	29.50745	-51.15967
0.441	-28.29895	-10.47363	-5.74036	26.3855	-52.46887
0.4415	-18.63098	-13.29346	-5.53894	14.50195	-49.0448
0.442	-0.30212	-0.70496	1.40991	15.20691	-48.74268
0.4425	1.40991	-2.92053	-5.43823	18.93311	-45.62073
0.443	5.0354	-0.70496	-0.60425	6.54602	-37.7655
0.4435	14.60266	6.94885	-1.61133	7.15027	-40.88745
0.444	19.03381	5.0354	0.50354	1.91345	-32.7301
0.4445	23.96851	7.75452	-0.10071	-1.40991	-29.60815
0.445	31.72302	7.45239	-1.3092	-3.02124	-23.96851
0.4455	46.5271	13.99841	-2.11487	-14.50195	-10.57434
0.446	47.33276	6.94885	-3.8269	-18.32886	-7.65381
0.4465	43.60657	12.68921	-3.12195	-20.04089	5.84106
0.447	50.45471	14.60266	-2.81982	-30.2124	15.00549
0.4475	46.42639	8.35876	-2.81982	-26.08337	15.30762
0.448	47.63489	12.68921	-2.61841	-22.96143	22.96143
0.4485	45.3186	16.41541	3.52478	-23.46497	27.09045
0.449	46.02356	13.89771	-0.60425	-22.86072	34.14001
0.4495	34.34143	8.66089	1.40991	-25.57983	36.35559
0.45	34.54285	12.89062	-2.71912	-26.08337	39.17542
0.4505	24.77417	11.48071	2.21558	-25.88196	45.11719
0.451	18.63098	1.71204	-0.10071	-17.82532	48.84338
0.4515	13.19275	0.90637	-4.12903	-18.8324	53.97949
0.452	4.93469	-1.91345	-1.81274	-15.60974	46.5271
0.4525	-8.96301	-0.80566	-3.92761	-12.18567	47.03064
0.453	-10.57434	-6.3446	1.3092	-7.75452	39.47754
0.4535	-24.16992	-1.61133	-0.70496	-7.35168	38.26904
0.454	-24.06921	-6.3446	2.41699	-5.63965	33.33435
0.4545	-34.44214	-7.95593	-1.61133	0.30212	24.27063
0.455	-43.40515	-16.81824	2.01416	9.06372	21.55151
0.4555	-51.15967	-20.54443	0.70496	15.60974	7.04956
0.456	-53.27454	-17.01965	-0.10071	15.50903	-0.10071
0.4565	-51.96533	-18.8324	-3.7262	17.32178	-3.22266
0.457	-57.70569	-21.65222	-5.13611	19.63806	-12.18567
0.4575	-50.85754	-18.12744	-0.80566	18.8324	-14.09912
0.458	-49.44763	-15.71045	-7.75452	24.27063	-29.91028
0.4585	-56.09436	-10.67505	-3.52478	17.6239	-36.75842
0.459	-44.51294	-15.30762	-6.74744	23.56567	-33.53577
0.4595	-43.00232	-12.68921	-5.0354	23.46497	-39.57825
0.46	-36.95984	-16.41541	-8.15735	23.26355	-49.24622
0.4605	-41.79382	-13.09204	-13.69629	23.26355	-44.0094
0.461	-22.86072	-10.97717	-0.50354	29.10461	-47.93701
0.4615	-14.90479	-8.05664	-1.3092	14.09912	-52.36816
0.462	-2.31628	-2.11487	-4.12903	18.32886	-49.54834
0.4625	3.02124	-2.31628	3.22266	6.84814	-43.70728
0.463	5.74036	-2.71912	-7.04956	5.84106	-47.33276
0.4635	19.73877	2.61841	2.61841	7.85522	-43.80798
0.464	22.55859	9.26514	-3.7262	7.35168	-33.53577
0.4645	29.70886	6.74744	-4.53186	-2.92053	-26.28479
0.465	36.75842	9.46655	-5.84106	-3.52478	-25.177
0.4655	40.2832	9.26514	-8.25806	-6.74744	-13.39417
0.466	48.64197	15.30762	-1.2085	-13.99841	-3.8269
0.4665	51.86462	15.00549	0.40283	-15.20691	1.3092
0.467	53.67737	6.64673	-5.13611	-18.63098	11.2793
0.4675	46.22498	10.57434	0.10071	-25.98267	19.33594
0.468	49.0448	9.16443	-1.10779	-23.66638	24.97559
0.4685	46.22498	9.86938	-7.65381	-30.71594	30.71594
0.469	43.00232	13.59558	-4.33044	-24.67346	33.83789
0.4695	34.74426	5.63965	-3.02124	-20.84656	41.29028
0.47	34.03931	4.33044	-1.91345	-21.95435	39.98108
0.4705	30.01099	4.12903	2.61841	-22.86072	44.21082
0.471	16.3147	0.10071	-1.00708	-14.60266	49.64905
0.4715	6.44531	3.22266	-2.5177	-14.19983	47.43347
0.472	-7.75452	-5.33752	-2.81982	-18.22815	54.28162
0.4725	-13.59558	-1.2085	-1.40991	-10.97717	46.12427
0.473	-15.20691	-3.22266	-3.12195	-5.94177	40.78674
0.4735	-23.26355	-12.5885	-0.10071	-3.92761	35.54993
0.474	-32.52869	-12.18567	-3.92761	3.42407	35.14709
0.4745	-29.91028	-11.48071	-5.74036	-0.30212	25.57983
0.475	-43.70728	-14.40125	0.20142	5.0354	18.63098
0.4755	-44.31152	-16.51611	2.41699	12.18567	14.90479
0.476	-48.33984	-19.63806	-5.0354	14.19983	6.84814
0.4765	-55.99365	-18.53027	-1.71204	12.99133	-8.05664
0.477	-53.37524	-13.49487	-4.73328	13.39417	-13.99841
0.4775	-51.15967	-15.91187	2.31628	22.76001	-23.66638
0.478	-51.36108	-12.38708	-2.11487	21.24939	-30.01099
0.4785	-56.90002	-13.99841	0.10071	26.08337	-37.36267
0.479	-52.06604	-14.90479	-2.92053	25.47913	-35.14709
0.4795	-50.2533	-13.39417	-2.71912	20.84656	-43.60657
0.48	-43.10303	-13.19275	-0.20142	22.6593	-44.31152
0.4805	-34.03931	-15.40833	1.10779	22.76001	-45.82214
0.481	-26.28479	-9.86938	-0.60425	22.86072	-51.36108
0.4815	-12.78992	-8.96301	-6.14319	20.84656	-51.26038
0.482	-6.64673	-8.66089	1.3092	12.89062	-45.92285
0.4825	3.92761	-2.71912	0.70496	13.99841	-45.92285
0.483	16.71753	-3.02124	2.41699	7.15027	-43.90869
0.4835	17.72461	-0.10071	1.3092	7.04956	-39.57825
0.484	17.32178	0.50354	-7.65381	2.21558	-36.55701
0.4845	24.87488	7.85522	-6.74744	-4.02832	-25.88196
0.485	32.52869	8.96301	-3.02124	-12.38708	-21.85364
0.4855	47.23206	10.97717	-4.12903	-6.64673	-14.70337
0.486	43.30444	14.90479	5.84106	-14.80408	-12.28638
0.4865	48.13843	12.48779	2.31628	-15.1062	-1.51062
0.487	54.28162	15.20691	5.43823	-19.23523	12.99133
0.4875	42.19666	9.86938	-3.22266	-16.61682	23.36426
0.488	43.60657	13.99841	0.70496	-25.57983	20.1416
0.4885	40.98816	6.44531	1.00708	-24.77417	28.70178
0.489	42.29736	8.35876	-2.71912	-26.88904	33.73718
0.4895	39.98108	7.75452	-5.84106	-27.49329	38.77258
0.49	31.92444	5.23682	1.51062	-25.88196	40.98816
0.4905	23.26355	2.5177	-1.10779	-19.94019	43.80798
0.491	16.21399	0.90637	-0.70496	-18.73169	51.5625
0.4915	2.5177	-2.92053	-0.70496	-21.65222	52.771
0.492	-4.12903	-0.70496	-0.50354	-20.74585	47.03064
0.4925	-11.48071	2.21558	0.60425	-16.21399	49.64905
0.493	-22.35718	-0.90637	-1.51062	-12.38708	43.40515
0.4935	-21.45081	-10.67505	-1.10779	-8.7616	35.65063
0.494	-32.62939	-8.15735	-10.17151	-2.71912	32.32727
0.4945	-37.66479	-13.99841	-4.73328	4.93469	27.59399
0.495	-43.00232	-14.19983	-6.04248	3.52478	21.04797
0.4955	-46.42639	-12.38708	-5.13611	8.05664	7.04956
0.496	-54.48303	-12.68921	-6.14319	13.69629	0.80566
0.4965	-59.51843	-14.19983	-2.5177	19.23523	-8.56018
0.497	-61.12976	-13.797	-2.41699	18.8324	-16.01257
0.4975	-54.38232	-9.97009	-4.12903	17.32178	-20.84656
0.498	-53.07312	-15.30762	-0.80566	22.05505	-31.32019
0.4985	-52.06604	-17.22107	0.10071	16.41541	-32.22656
0.499	-49.14551	-17.52319	-1.91345	24.87488	-33.9386
0.4995	-45.01648	-21.24939	-3.62549	23.76709	-35.85205
0.5	-43.00232	-12.99133	-7.5531	19.63806	-48.64197
0.5005	-30.31311	-5.74036	-5.74036	20.44373	-47.8363
0.501	-28.50037	-0.80566	-1.71204	23.36426	-46.02356
0.5015	-12.18567	-7.15027	-5.0354	22.6593	-51.86462
0.502	-5.0354	-0.70496	-4.22974	22.25647	-49.95117
0.5025	0.80566	-5.23682	-3.92761	11.38	-46.22498
0.503	9.66797	-6.14319	-2.21558	8.7616	-44.31152
0.5035	10.27222	-1.51062	3.32336	5.53894	-41.99524
0.504	16.11328	7.45239	2.81982	-0.10071	-34.54285
0.5045	24.06921	11.88354	1.10779	0.30212	-26.68762
0.505	27.19116	14.70337	0.40283	-4.33044	-23.46497
0.5055	38.67188	15.30762	-2.5177	-9.46655	-16.91895
0.506	46.82922	15.00549	-2.31628	-16.01257	-6.04248
0.5065	41.18958	12.99133	3.32336	-14.80408	-0.10071
0.507	51.05896	5.43823	1.71204	-18.42957	5.13611
0.5075	46.5271	6.44531	0.20142	-23.26355	17.22107
0.508	36.75842	2.71912	4.53186	-26.3855	23.8678
0.5085	46.22498	5.23682	-2.31628	-22.15576	29.70886
0.509	44.71436	4.12903	-4.83398	-27.6947	34.54285
0.5095	35.04639	4.73328	2.01416	-27.89612	42.59949
0.51	35.14709	5.0354	-3.52478	-27.29187	46.82922
0.5105	26.48621	5.43823	-2.01416	-26.88904	43.60657
0.511	22.25647	5.0354	-3.02124	-24.16992	43.20374
0.5115	10.77576	-2.41699	0.10071	-19.83948	56.90002
0.512	0.80566	-2.71912	0.60425	-13.19275	47.43347
0.5125	-6.3446	-4.73328	-4.02832	-18.32886	44.91577
0.513	-14.09912	-12.38708	-0.10071	-12.08496	46.92993
0.5135	-23.06213	-9.56726	-2.71912	-7.04956	42.59949
0.514	-26.78833	-13.59558	-3.12195	-2.71912	35.75134
0.5145	-29.30603	-12.68921	-6.2439	2.81982	39.07471
0.515	-39.47754	-17.72461	-9.16443	2.01416	21.14868
0.5155	-53.27454	-21.45081	-4.12903	16.41541	16.3147
0.516	-53.17383	-14.09912	-3.7262	12.99133	3.42407
0.5165	-54.28162	-15.71045	-8.35876	17.52319	-0.10071
0.517	-56.90002	-10.87646	-6.84814	23.66638	-9.86938
0.5175	-52.8717	-8.35876	-5.13611	21.75293	-23.06213
0.518	-57.9071	-13.39417	-5.74036	20.24231	-27.89612
0.5185	-53.87878	-5.74036	0.70496	16.01257	-31.62231
0.519	-59.71985	-9.36584	-0.10071	23.16284	-30.51453
0.5195	-51.05896	-11.78284	4.63257	24.57275	-42.09595
0.52	-38.77258	-8.7616	0.20142	25.177	-44.51294
0.5205	-36.55701	-8.56018	0.70496	19.63806	-51.96533
0.521	-25.177	-8.8623	-1.10779	23.66638	-53.67737
0.5215	-10.67505	-11.48071	-4.12903	12.18567	-52.26746
0.522	1.00708	-8.15735	6.44531	10.67505	-54.88586
0.5225	-1.51062	-7.15027	-0.10071	12.99133	-47.43347
0.523	8.7616	-0.60425	4.73328	7.95593	-40.48462
0.5235	21.85364	-3.12195	3.22266	2.71912	-41.39099
0.524	15.50903	2.41699	3.7262	-4.33044	-36.25488
0.5245	17.72461	6.14319	4.93469	-3.8269	-35.34851
0.525	31.4209	7.15027	2.92053	-8.05664	-29.91028
0.5255	34.94568	8.66089	7.45239	-16.61682	-15.60974
0.526	39.88037	10.57434	10.57434	-16.3147	-8.25806
0.5265	44.71436	15.71045	4.63257	-28.09753	-3.12195
0.527	49.14551	13.89771	9.06372	-21.75293	17.92603
0.5275	43.30444	9.97009	6.04248	-29.80957	14.50195
0.528	43.00232	13.49487	3.22266	-22.6593	21.24939
0.5285	40.48462	8.56018	1.3092	-32.52869	28.39966
0.529	37.16125	7.5531	2.11487	-26.88904	35.34851
0.5295	36.55701	8.45947	-3.8269	-30.31311	38.57117
0.53	37.36267	11.07788	1.81274	-25.27771	44.0094
0.5305	26.78833	5.84106	7.35168	-34.64355	43.50586
0.531	15.50903	-2.41699	-2.11487	-22.45789	47.43347
0.5315	9.56726	-4.22974	-5.13611	-24.47205	50.05188
0.532	-2.41699	-7.5531	-3.92761	-11.48071	48.03772
0.5325	-7.15027	-0.10071	-9.86938	-12.38708	48.64197
0.533	-9.16443	-5.13611	1.71204	-9.36584	40.68604
0.5335	-16.61682	-4.53186	-0.40283	-7.5531	38.36975
0.534	-22.35718	-11.68213	-4.33044	-6.64673	32.62939
0.5345	-34.24072	-13.29346	-3.22266	-2.71912	27.99683
0.535	-40.48462	-18.42957	-8.45947	5.0354	15.71045
0.5355	-40.98816	-15.71045	2.21558	5.53894	7.5531
0.536	-47.23206	-15.1062	-1.10779	16.51611	4.53186
0.5365	-56.79932	-16.71753	-3.7262	20.44373	-1.91345
0.537	-60.92834	-20.44373	-3.12195	23.8678	-19.33594
0.5375	-55.49011	-18.73169	-3.12195	18.63098	-22.86072
0.538	-49.74976	-13.59558	0.20142	25.27771	-25.68054
0.5385	-53.67737	-17.52319	-2.5177	22.15576	-23.46497
0.539	-42.39807	-14.19983	-6.3446	24.47205	-35.2478
0.5395	-47.43347	-12.89062	-6.04248	26.08337	-41.39099
0.54	-40.38391	-10.47363	0.40283	19.43665	-44.41223
0.5405	-41.79382	-9.86938	-6.3446	25.07629	-49.14551
0.541	-32.83081	-0.30212	-2.21558	26.08337	-45.41931
0.5415	-19.53735	2.5177	2.92053	22.45789	-51.86462
0.542	-12.38708	3.8269	-0.90637	19.43665	-50.65613
0.5425	-5.63965	0	2.01416	7.75452	-50.95825
0.543	5.13611	0.20142	5.94177	-0.10071	-40.48462
0.5435	13.19275	7.15027	0.80566	6.74744	-37.66479
0.544	13.09204	11.78284	7.04956	2.61841	-33.73718
0.5445	18.42957	4.53186	0.30212	-1.61133	-27.89612
0.545	29.60815	8.15735	-0.50354	0	-20.34302
0.5455	43.80798	11.78284	4.02832	-11.17859	-13.19275
0.546	49.0448	8.7616	-1.00708	-12.38708	-9.56726
0.5465	47.43347	19.94019	-1.51062	-12.38708	4.53186
0.547	48.74268	12.28638	-2.31628	-12.38708	12.08496
0.5475	49.24622	10.17151	0.90637	-12.38708	15.91187
0.548	46.32568	19.03381	-0.80566	-12.38708	24.47205
0.5485	41.08887	11.98425	-2.81982	-12.38708	33.03223
0.549	40.98816	9.97009	-6.54602	-12.38708	40.1825
0.5495	37.06055	8.45947	-0.90637	-12.38708	40.78674
0.55	29.40674	9.16443	-0.20142	-12.38708	47.93701
0.5505	22.25647	4.53186	-0.10071	-12.38708	47.33276
0.551	17.82532	0.40283	-8.66089	-12.38708	50.45471
0.5515	2.5177	2.31628	-0.90637	-12.38708	50.85754
0.552	-0.40283	-5.0354	-3.7262	-12.38708	50.95825
0.5525	-4.83398	-7.5531	-5.13611	-12.38708	49.54834
0.553	-4.33044	-1.51062	1.3092	-12.38708	43.90869
0.5535	-22.15576	-4.33044	-0.90637	-2.92053	34.74426
0.554	-20.44373	-5.53894	-4.33044	-0.30212	37.7655
0.5545	-31.4209	-15.30762	-5.53894	5.94177	22.76001
0.555	-41.39099	-12.78992	-5.33752	2.92053	16.61682
0.5555	-50.95825	-18.93311	-4.12903	8.7616	6.04248
0.556	-47.43347	-14.60266	-1.40991	11.78284	5.33752
0.5565	-56.29578	-14.30054	-3.92761	19.53735	-4.73328
0.557	-60.12268	-15.40833	3.12195	24.87488	-12.48779
0.5575	-53.07312	-16.41541	2.71912	21.55151	-19.63806
0.558	-53.37524	-18.22815	4.83398	20.04089	-27.6947
0.5585	-52.16675	-19.53735	1.00708	22.05505	-32.83081
0.559	-46.02356	-11.98425	3.7262	25.47913	-36.35559
0.5595	-38.36975	-11.48071	8.15735	23.26355	-41.18958
0.56	-38.87329	-8.25806	1.00708	25.78125	-47.33276
0.5605	-30.2124	-16.81824	-6.64673	22.35718	-43.80798
0.561	-22.45789	-15.81116	-0.10071	20.24231	-52.46887
0.5615	-13.59558	-5.84106	-1.61133	22.6593	-52.46887
0.562	-6.3446	-6.3446	-3.12195	19.23523	-49.24622
0.5625	-2.01416	1.00708	-1.2085	3.7262	-52.46887
0.563	8.96301	-1.71204	-1.10779	8.35876	-47.23206
0.5635	15.20691	5.0354	0.30212	5.0354	-37.06055
0.564	20.74585	2.81982	0.80566	3.7262	-31.32019
0.5645	27.99683	7.5531	-4.02832	0.50354	-25.07629
0.565	32.7301	14.19983	-3.52478	-2.5177	-20.54443
0.5655	44.61365	12.68921	-2.21558	-10.97717	-12.5885
0.566	48.44055	13.09204	5.53894	-13.797	-7.75452
0.5665	48.44055	15.60974	6.54602	-21.04797	-2.71912
0.567	50.85754	13.09204	-3.12195	-22.25647	6.44531
0.5675	51.36108	16.41541	2.21558	-25.27771	18.12744
0.568	43.60657	14.19983	7.04956	-23.66638	24.77417
0.5685	44.0094	11.98425	9.66797	-27.89612	34.74426
0.569	33.73718	10.87646	0.50354	-29.30603	37.96692
0.5695	33.03223	11.48071	1.61133	-31.32019	37.7655
0.57	31.72302	5.53894	-0.70496	-24.57275	42.29736
0.5705	26.08337	8.15735	5.0354	-29.91028	52.97241
0.571	15.81116	-0.40283	-1.3092	-23.96851	45.62073
0.5715	10.17151	-3.32336	-4.73328	-17.01965	48.54126
0.572	0.50354	0.60425	-6.04248	-16.3147	49.44763
0.5725	-12.08496	-0.50354	-2.11487	-16.41541	50.95825
0.573	-15.40833	-7.5531	-3.52478	-5.74036	39.17542
0.5735	-21.85364	-12.5885	-5.33752	-6.44531	40.48462
0.574	-20.04089	-8.35876	-4.83398	2.11487	22.45789
0.5745	-25.78125	-11.2793	-4.53186	1.51062	18.32886
0.575	-39.27612	-17.01965	-1.2085	0.10071	20.1416
0.5755	-51.36108	-20.74585	0	1.51062	11.78284
0.576	-51.86462	-20.04089	-1.10779	10.27222	3.42407
0.5765	-55.08728	-18.12744	-4.02832	17.01965	-3.92761
0.577	-51.26038	-21.3501	-2.01416	18.22815	-11.78284
0.5775	-49.24622	-15.60974	-2.92053	21.14868	-22.55859
0.578	-50.45471	-12.5885	-1.91345	23.46497	-27.19116
0.5785	-46.42639	-17.52319	-6.54602	23.56567	-33.33435
0.579	-44.41223	-19.53735	-8.66089	23.56567	-38.16833
0.5795	-37.96692	-7.75452	0	30.91736	-37.46338
0.58	-36.55701	-15.40833	-3.32336	21.85364	-49.85046
0.5805	-27.79541	-10.57434	1.10779	22.96143	-49.44763
0.581	-25.07629	-13.19275	-3.92761	23.46497	-49.24622
0.5815	-10.37292	-5.33752	-1.91345	17.22107	-53.17383
0.582	-5.74036	-10.0708	-2.92053	12.89062	-48.03772
0.5825	2.11487	-4.93469	-3.52478	10.97717	-43.50586
0.583	6.44531	-2.81982	-5.13611	0.30212	-39.77966
0.5835	22.15576	0.80566	-0.30212	1.61133	-40.68604
0.584	25.07629	3.42407	-7.15027	5.0354	-35.65063
0.5845	32.32727	7.45239	-5.74036	0.20142	-26.48621
0.585	35.34851	11.38	-1.10779	-8.45947	-19.83948
0.5855	35.85205	13.29346	-4.93469	-15.00549	-16.51611
0.586	45.2179	15.00549	-2.71912	-18.02673	-7.15027
0.5865	54.0802	12.99133	-4.63257	-24.06921	0.70496
0.587	43.80798	14.30054	-0.90637	-23.26355	17.12036
0.5875	48.33984	18.42957	-2.71912	-21.14868	15.71045
0.588	43.40515	14.09912	5.84106	-29.70886	18.12744
0.5885	35.14709	13.39417	1.10779	-23.56567	30.01099
0.589	42.7002	13.39417	5.23682	-30.91736	34.24072
0.5895	39.98108	7.75452	4.43115	-26.88904	39.27612
0.59	31.82373	9.46655	7.35168	-28.09753	45.2179
0.5905	23.56567	4.53186	3.32336	-28.50037	47.13135
0.591	20.64514	4.12903	1.00708	-27.99683	48.44055
0.5915	12.08496	2.92053	-0.10071	-27.09045	49.24622
0.592	-4.93469	-3.52478	-1.91345	-13.19275	49.85046
0.5925	-7.65381	2.71912	-0.80566	-17.92603	44.41223
0.593	-9.06372	-0.80566	-1.3092	-7.45239	42.90161
0.5935	-23.96851	-7.85522	0.50354	-7.15027	41.29028
0.594	-32.02515	-9.16443	-3.52478	1.81274	33.33435
0.5945	-33.33435	-9.16443	-2.21558	-0.50354	28.60107
0.595	-39.98108	-9.16443	2.92053	11.07788	25.07629
0.5955	-49.14551	-10.57434	-0.80566	13.59558	13.797
0.596	-55.99365	-20.64514	1.61133	13.69629	-1.10779
0.5965	-55.89294	-20.24231	-2.71912	18.32886	-4.53186
0.597	-56.69861	-16.01257	-5.13611	20.84656	-12.38708
0.5975	-55.18799	-18.63098	-6.74744	18.22815	-18.22815
0.598	-46.22498	-24.97559	7.75452	26.88904	-31.4209
0.5985	-40.98816	-26.68762	-1.91345	19.63806	-35.65063
0.599	-37.26196	-22.86072	-4.73328	24.06921	-38.87329
0.5995	-40.78674	-16.71753	-8.45947	21.75293	-44.11011
0.6	-40.1825	-13.49487	-2.21558	25.37842	-45.62073
0.6005	-29.91028	-10.77576	-1.00708	23.96851	-44.61365
0.601	-23.66638	-9.16443	-3.62549	22.76001	-50.354
0.6015	-16.21399	-7.65381	-0.10071	12.5885	-53.47595
0.602	-5.53894	-9.36584	-7.35168	11.17859	-48.54126
0.6025	-0.10071	-4.73328	-7.35168	13.09204	-46.62781
0.603	5.13611	3.8269	-7.35168	9.26514	-47.03064
0.6035	13.69629	4.53186	-7.35168	6.94885	-34.44214
0.604	17.01965	14.60266	-7.35168	-4.43115	-28.80249
0.6045	24.87488	12.99133	-7.35168	-6.54602	-26.08337
0.605	36.35559	11.78284	-7.35168	-12.68921	-24.06921
0.6055	41.69312	15.60974	-7.35168	-15.60974	-20.24231
0.606	49.64905	11.2793	-7.35168	-17.32178	-6.94885
0.6065	49.74976	15.50903	-7.35168	-18.8324	1.81274
0.607	39.77966	16.61682	-7.35168	-22.86072	8.45947
0.6075	44.91577	13.59558	-7.35168	-20.04089	15.91187
0.608	46.82922	12.99133	-7.35168	-24.47205	27.59399
0.6085	44.0094	9.66797	-7.35168	-30.81665	34.24072
0.609	39.17542	10.0708	-7.35168	-25.27771	34.54285
0.6095	38.974	6.44531	-3.52478	-31.82373	45.52002
0.61	33.43506	-0.60425	0.20142	-25.37842	41.39099
0.6105	21.65222	6.04248	-5.94177	-23.66638	45.72144
0.611	15.40833	3.02124	-3.92761	-25.98267	50.65613
0.6115	2.61841	-0.50354	2.71912	-24.97559	49.54834
0.612	-0.60425	-3.12195	4.33044	-17.52319	42.59949
0.6125	-9.16443	-0.70496	1.00708	-14.60266	43.60657
0.613	-15.40833	0.40283	-1.81274	-10.17151	42.49878
0.6135	-24.37134	-5.53894	0.80566	-6.44531	38.57117
0.614	-35.65063	-9.06372	0.10071	-2.92053	30.61523
0.6145	-39.37683	-11.88354	-0.20142	3.92761	27.09045
0.615	-42.39807	-14.40125	-3.12195	7.35168	23.46497
0.6155	-48.74268	-19.03381	-3.52478	9.46655	13.69629
0.616	-59.31702	-15.40833	-4.33044	10.57434	1.3092
0.6165	-55.08728	-17.52319	-7.15027	15.81116	-5.63965
0.617	-59.1156	-15.1062	-3.22266	22.25647	-16.81824
0.6175	-58.10852	-17.72461	-2.41699	30.31311	-23.06213
0.618	-54.78516	-13.49487	-3.92761	22.25647	-33.53577
0.6185	-52.06604	-14.80408	-1.91345	25.47913	-37.66479
0.619	-50.55542	-10.37292	-5.43823	23.06213	-38.87329
0.6195	-42.29736	-11.38	-4.43115	29.60815	-51.36108
0.62	-37.26196	-8.56018	2.92053	23.66638	-51.46179
0.6205	-30.11169	-12.89062	-6.54602	30.2124	-49.95117
0.621	-22.15576	-4.83398	-7.75452	18.53027	-47.23206
0.6215	-12.18567	-3.92761	-2.5177	17.82532	-49.95117
0.622	-6.2439	-3.22266	-4.22974	16.71753	-49.64905
0.6225	3.02124	-0.70496	0.10071	7.45239	-49.64905
0.623	6.84814	0.30212	-8.96301	13.19275	-50.2533
0.6235	16.51611	0.90637	-7.15027	3.7262	-43.40515
0.624	19.83948	-0.60425	-5.43823	5.63965	-36.4563
0.6245	23.96851	9.66797	-4.33044	-8.25806	-30.41382
0.625	35.95276	11.78284	-4.33044	-11.48071	-31.01807
0.6255	41.39099	12.5885	-0.70496	-17.52319	-23.36426
0.626	44.61365	14.60266	-0.20142	-18.02673	-5.33752
0.6265	53.07312	16.81824	-1.51062	-18.63098	7.5531
0.627	49.44763	16.21399	-2.11487	-20.04089	10.17151
0.6275	45.62073	12.99133	0.30212	-24.06921	19.94019
0.628	36.55701	10.0708	-0.70496	-22.86072	22.05505
0.6285	45.2179	12.28638	4.02832	-31.52161	35.14709
0.629	37.16125	10.47363	-6.74744	-24.47205	30.71594
0.6295	36.25488	4.53186	-0.30212	-24.37134	36.85913
0.63	29.91028	5.33752	-0.90637	-23.96851	44.51294
0.6305	25.47913	6.84814	-1.2085	-31.82373	40.58533
0.631	13.29346	3.92761	-4.33044	-25.07629	48.54126
0.6315	1.40991	2.41699	-8.96301	-27.29187	48.03772
0.632	-0.90637	-0.50354	2.01416	-21.3501	52.771
0.6325	-13.69629	-4.22974	-4.53186	-15.40833	48.54126
0.633	-17.6239	-10.37292	-5.33752	-12.38708	41.99524
0.6335	-22.25647	-10.57434	-2.31628	-7.35168	37.96692
0.634	-29.70886	-12.38708	-2.61841	-8.35876	32.93152
0.6345	-36.25488	-18.12744	-0.30212	1.2085	29.91028
0.635	-45.3186	-15.81116	2.41699	12.5885	16.61682
0.6355	-52.36816	-19.33594	1.40991	10.77576	16.41541
0.636	-56.29578	-20.44373	0.10071	14.70337	5.13611
0.6365	-60.92834	-23.66638	-5.13611	20.64514	-1.91345
0.637	-56.49719	-12.18567	-6.2439	21.45081	-9.86938
0.6375	-53.77808	-14.60266	-3.42407	18.22815	-24.06921
0.638	-53.47595	-15.20691	-2.11487	22.96143	-24.37134
0.6385	-51.66321	-13.797	-4.33044	15.81116	-33.73718
0.639	-46.62781	-15.20691	-2.71912	18.93311	-39.77966
0.6395	-39.27612	-10.67505	-0.10071	24.47205	-39.77966
0.64	-40.98816	-11.98425	-2.31628	21.75293	-42.8009
0.6405	-34.44214	-10.0708	2.11487	22.25647	-53.67737
0.641	-23.26355	-8.96301	-5.94177	15.50903	-56.5979
0.6415	-18.02673	-1.91345	4.83398	14.70337	-55.2887
0.642	-5.43823	-1.2085	0.50354	14.19983	-53.77808
0.6425	3.92761	0.80566	-1.71204	11.98425	-44.51294
0.643	15.20691	2.41699	2.92053	3.32336	-42.8009
0.6435	11.48071	2.71912	-0.70496	4.43115	-39.07471
0.644	21.3501	10.57434	-0.90637	6.74744	-30.71594
0.6445	23.46497	11.48071	-0.70496	0.10071	-23.66638
0.645	38.57117	9.66797	-3.7262	-7.85522	-20.24231
0.6455	40.08179	10.77576	-1.91345	-11.58142	-17.01965
0.646	46.02356	11.78284	-1.61133	-20.24231	-8.96301
0.6465	52.8717	16.81824	-5.94177	-18.02673	-6.14319
0.647	52.26746	7.85522	-0.10071	-19.43665	10.87646
0.6475	47.8363	7.95593	0.50354	-20.24231	16.61682
0.648	46.42639	8.7616	0.10071	-21.55151	19.94019
0.6485	44.41223	8.8623	2.11487	-25.68054	29.20532
0.649	40.68604	6.14319	-5.53894	-24.06921	35.14709
0.6495	38.87329	10.0708	1.91345	-28.29895	43.00232
0.65	37.46338	8.8623	-4.73328	-29.60815	49.24622
0.6505	29.00391	5.53894	-0.40283	-21.45081	44.81506
0.651	21.65222	-1.3092	-0.90637	-22.76001	52.8717
0.6515	7.04956	-1.00708	3.52478	-19.63806	54.88586
0.652	-7.75452	-7.25098	-0.60425	-15.50903	51.5625
0.6525	-11.17859	-8.66089	-2.11487	-6.04248	44.21082
0.653	-13.29346	-6.64673	-1.51062	-8.7616	43.70728
0.6535	-23.66638	-8.7616	-1.51062	3.8269	39.77966
0.654	-34.34143	-12.18567	-7.15027	-8.56018	34.84497
0.6545	-29.91028	-11.17859	-0.70496	-1.71204	23.36426
0.655	-40.98816	-17.92603	-0.10071	0.50354	19.73877
0.6555	-49.85046	-13.19275	-0.10071	-0.10071	9.66797
0.656	-55.79224	-14.60266	-8.7616	15.30762	-0.30212
0.6565	-58.20923	-20.24231	-2.5177	21.65222	-6.14319
0.657	-58.00781	-11.98425	-2.41699	20.1416	-7.35168
0.6575	-54.38232	-13.59558	-6.04248	18.93311	-25.68054
0.658	-54.18091	-17.52319	-5.94177	19.83948	-32.42798
0.6585	-51.66321	-10.57434	-6.94885	27.39258	-36.25488
0.659	-44.41223	-16.41541	-4.53186	27.49329	-43.30444
0.6595	-47.43347	-17.42249	-0.10071	25.07629	-44.91577
0.66	-40.08179	-13.39417	0.40283	18.53027	-50.45471
0.6605	-34.94568	-11.17859	-6.14319	23.06213	-45.62073
0.661	-20.24231	-10.77576	-5.74036	21.65222	-53.37524
0.6615	-10.77576	-7.5531	-1.91345	17.42249	-53.57666
0.662	-2.31628	-0.20142	-0.30212	11.68213	-54.38232
0.6625	5.13611	-2.61841	-2.5177	15.81116	-53.97949
0.663	5.23682	2.81982	-5.53894	10.17151	-40.38391
0.6635	18.42957	3.7262	1.91345	-1.10779	-41.08887
0.664	20.1416	5.74036	-4.63257	-4.93469	-30.31311
0.6645	26.48621	7.35168	-4.12903	-2.31628	-22.05505
0.665	36.05347	10.57434	4.33044	-5.13611	-22.55859
0.6655	45.62073	10.67505	-2.01416	-12.28638	-11.58142
0.666	43.00232	7.85522	-2.41699	-17.22107	-4.33044
0.6665	59.1156	13.39417	4.33044	-20.74585	2.92053
0.667	50.95825	16.21399	3.42407	-25.07629	16.71753
0.6675	42.7002	14.30054	0.10071	-21.65222	19.53735
0.668	43.00232	19.73877	1.91345	-29.30603	27.99683
0.6685	47.8363	16.61682	3.92761	-32.93152	36.75842
0.669	36.85913	14.40125	6.84814	-34.44214	37.86621
0.6695	33.33435	6.54602	12.48779	-28.09753	43.00232
0.67	35.95276	8.35876	-2.21558	-22.05505	41.69312
0.6705	25.07629	2.92053	4.53186	-19.33594	46.5271
0.671	15.1062	-0.20142	1.51062	-22.96143	51.46179
0.6715	1.3092	-3.32336	3.32336	-18.73169	48.23914
0.672	-3.8269	-2.01416	3.52478	-17.32178	49.85046
0.6725	-7.15027	-7.75452	4.12903	-13.19275	43.00232
0.673	-15.30762	-8.96301	-1.71204	-11.68213	43.40515
0.6735	-20.84656	-9.66797	0.70496	-6.04248	35.95276
0.674	-33.33435	-11.58142	-1.40991	-2.11487	32.93152
0.6745	-37.36267	-12.68921	0.70496	2.71912	22.6593
0.675	-40.98816	-18.63098	-2.11487	6.94885	12.5885
0.6755	-51.15967	-20.84656	-7.35168	16.21399	10.67505
0.676	-50.65613	-19.33594	0.20142	18.63098	-0.20142
0.6765	-55.89294	-14.50195	-4.33044	18.93311	0.40283
0.677	-51.66321	-19.53735	-5.43823	20.64514	-8.66089
0.6775	-58.51135	-18.02673	-7.25098	24.67346	-18.12744
0.678	-49.24622	-13.39417	-8.66089	24.67346	-25.07629
0.6785	-51.05896	-20.04089	-0.90637	28.70178	-34.74426
0.679	-45.11719	-21.24939	-4.12903	24.67346	-34.54285
0.6795	-40.78674	-19.83948	-3.12195	26.88904	-39.17542
0.68	-32.93152	-17.22107	-12.18567	27.79541	-46.62781
0.6805	-28.50037	-7.95593	-7.95593	29.30603	-50.95825
0.681	-21.75293	-8.66089	-6.2439	21.95435	-55.08728
0.6815	-12.38708	1.3092	1.3092	11.38	-53.27454
0.682	-4.33044	-3.7262	-4.63257	12.38708	-47.03064
0.6825	0.20142	1.3092	-6.2439	12.99133	-49.64905
0.683	8.05664	3.52478	-2.21558	7.25098	-37.96692
0.6835	14.90479	7.04956	-4.83398	5.33752	-36.15417
0.684	16.21399	8.66089	-2.92053	-0.80566	-38.36975
0.6845	27.79541	6.64673	1.71204	-4.73328	-27.79541
0.685	34.14001	9.66797	-1.51062	-9.26514	-18.63098
0.6855	38.16833	10.67505	6.14319	-14.19983	-16.3147
0.686	46.02356	9.97009	0.20142	-19.03381	-7.15027
0.6865	48.13843	9.36584	5.0354	-19.03381	-7.15027
0.687	47.63489	9.16443	2.11487	-19.03381	-7.15027
0.6875	37.56409	17.12036	7.45239	-19.03381	-7.15027
0.688	38.26904	17.01965	-3.8269	-19.03381	-7.15027
0.6885	32.42798	12.38708	3.02124	-19.03381	-7.15027
0.689	33.63647	21.85364	4.73328	-19.03381	-7.15027
0.6895	29.91028	21.04797	-3.92761	-19.03381	-7.15027
0.69	23.8678	12.89062	-0.10071	-19.03381	-7.15027
0.6905	21.45081	10.27222	2.5177	-19.03381	-7.15027
0.691	14.19983	10.47363	0.70496	-19.03381	-7.15027
0.6915	5.43823	1.10779	1.3092	-19.03381	-7.15027
0.692	-8.45947	1.10779	2.92053	-19.03381	-7.15027
0.6925	-12.38708	-2.31628	-6.3446	-19.03381	-7.15027
0.693	-16.61682	-0.50354	3.42407	-19.03381	-7.15027
0.6935	-28.39966	-9.16443	6.84814	-9.66797	33.13293
0.694	-32.83081	-5.84106	0.30212	-2.5177	28.50037
0.6945	-37.36267	-13.39417	-2.11487	-4.63257	27.09045
0.695	-49.44763	-10.57434	-1.81274	7.75452	22.96143
0.6955	-48.13843	-10.47363	0.20142	9.86938	11.98425
0.696	-53.37524	-20.84656	0.30212	13.69629	0.90637
0.6965	-54.28162	-25.57983	5.23682	12.5885	-7.65381
0.697	-52.46887	-15.81116	-2.5177	15.30762	-15.50903
0.6975	-54.78516	-13.19275	-5.74036	17.01965	-21.95435
0.698	-47.33276	-16.71753	-8.15735	23.8678	-29.50745
0.6985	-47.63489	-16.01257	-0.30212	17.72461	-29.80957
0.699	-47.13135	-14.80408	-4.43115	26.68762	-32.22656
0.6995	-44.61365	-11.2793	-4.93469	25.57983	-46.92993
0.7	-36.4563	-16.21399	1.00708	24.77417	-52.46887
0.7005	-30.11169	-12.48779	-1.71204	20.54443	-48.33984
0.701	-10.37292	-9.66797	-3.22266	20.24231	-46.92993
0.7015	-15.81116	-6.3446	-6.74744	17.72461	-55.49011
0.702	-2.71912	-1.61133	-0.10071	5.43823	-54.98657
0.7025	1.91345	-4.33044	-5.33752	11.48071	-52.16675
0.703	4.93469	1.00708	-0.20142	4.93469	-49.64905
0.7035	13.59558	2.01416	3.42407	-0.10071	-38.57117
0.704	26.68762	3.42407	0.80566	2.5177	-28.50037
0.7045	28.09753	2.81982	0.60425	-4.73328	-24.06921
0.705	44.81506	7.25098	0.50354	-12.18567	-16.3147
0.7055	45.92285	9.46655	-3.42407	-13.39417	-9.66797
0.706	48.74268	11.17859	-6.2439	-17.82532	-4.02832
0.7065	55.69153	19.23523	2.31628	-24.77417	2.92053
0.707	54.38232	6.94885	1.71204	-16.81824	8.56018
0.7075	47.7356	8.05664	1.00708	-24.27063	18.32886
0.708	50.65613	10.57434	5.63965	-22.55859	29.00391
0.7085	41.29028	6.44531	4.33044	-27.99683	28.50037
0.709	37.7655	13.49487	1.91345	-21.45081	38.36975
0.7095	33.13293	6.64673	-0.30212	-18.53027	40.78674
0.71	28.19824	6.54602	2.11487	-20.54443	47.23206
0.7105	26.48621	3.22266	-0.30212	-31.21948	41.29028
0.711	10.87646	6.74744	2.92053	-24.87488	51.05896
0.7115	2.31628	0.10071	-1.10779	-19.13452	52.771
0.712	-4.22974	0	-2.41699	-14.80408	47.7356
0.7125	-8.96301	-4.43115	-2.71912	-11.98425	42.59949
0.713	-17.01965	-7.5531	2.21558	-12.5885	42.29736
0.7135	-21.04797	-5.94177	-3.52478	-3.42407	38.16833
0.714	-33.13293	-9.66797	-0.70496	0.90637	26.68762
0.7145	-37.56409	-11.07788	-2.5177	-3.8269	24.87488
0.715	-42.59949	-3.52478	-1.00708	10.67505	19.53735
0.7155	-52.46887	-13.99841	-2.11487	10.37292	11.78284
0.716	-57.40356	-12.38708	-3.92761	18.42957	3.52478
0.7165	-54.58374	-12.99133	-4.12903	18.22815	-12.18567
0.717	-58.91418	-11.17859	-2.5177	23.66638	-18.73169
0.7175	-58.51135	-13.49487	-4.12903	24.47205	-19.23523
0.718	-56.29578	-22.45789	-5.53894	23.06213	-29.40674
0.7185	-51.76392	-11.58142	-5.53894	22.6593	-36.35559
0.719	-54.98657	-9.56726	-3.42407	22.15576	-37.96692
0.7195	-49.0448	-9.97009	-6.04248	24.67346	-44.71436
0.72	-36.15417	-14.90479	2.11487	28.19824	-48.13843
0.7205	-27.89612	-6.44531	-1.81274	24.67346	-53.07312
0.721	-20.34302	-1.51062	-1.61133	26.58691	-48.54126
0.7215	-12.89062	-6.64673	-2.21558	21.65222	-47.23206
0.722	2.41699	-15.00549	1.40991	17.52319	-52.8717
0.7225	10.37292	-4.53186	-5.74036	9.16443	-51.05896
0.723	18.8324	-2.5177	-0.10071	11.58142	-41.99524
0.7235	24.47205	-5.0354	-1.91345	8.35876	-41.08887
0.724	27.09045	-3.22266	-4.63257	3.22266	-34.44214
0.7245	26.88904	3.32336	-4.12903	-1.81274	-25.68054
0.725	39.98108	9.56726	-1.10779	-2.92053	-15.71045
0.7255	40.98816	11.17859	-2.81982	-12.89062	-13.29346
0.726	56.5979	11.38	3.52478	-15.20691	-4.53186
0.7265	48.03772	16.41541	-1.3092	-17.32178	6.84814
0.727	40.2832	19.13452	4.43115	-23.26355	15.91187
0.7275	45.82214	10.67505	2.92053	-21.65222	21.95435
0.728	41.29028	15.40833	-0.10071	-26.08337	22.76001
0.7285	44.81506	7.15027	1.81274	-23.66638	33.13293
0.729	40.78674	7.5531	2.31628	-24.16992	40.08179
0.7295	33.33435	13.797	-6.54602	-24.27063	41.29028
0.73	28.39966	13.19275	4.02832	-23.76709	46.82922
0.7305	28.19824	6.44531	-2.11487	-22.45789	53.17383
0.731	15.00549	2.5177	-6.74744	-26.28479	45.92285
0.7315	-1.81274	-4.33044	-6.04248	-21.75293	56.19507
0.732	-8.56018	-0.90637	-2.61841	-13.49487	46.92993
0.7325	-9.06372	-7.35168	-4.53186	-11.88354	46.42639
0.733	-14.90479	-6.3446	-0.40283	-8.96301	38.87329
0.7335	-25.88196	-17.52319	-0.50354	-5.33752	31.11877
0.734	-21.85364	-12.08496	0.40283	-9.56726	23.96851
0.7345	-34.54285	-14.80408	-8.35876	2.71912	24.67346
0.735	-39.98108	-11.17859	-6.14319	9.16443	16.91895
0.7355	-48.13843	-15.60974	-6.04248	15.50903	10.27222
0.736	-60.82764	-16.61682	0.10071	15.00549	5.74036
0.7365	-58.91418	-23.26355	-3.12195	14.30054	-8.15735
0.737	-55.49011	-17.6239	0.30212	23.16284	-14.30054
0.7375	-50.75684	-11.58142	-1.81274	24.06921	-13.89771
0.738	-51.36108	-15.1062	-1.10779	18.73169	-28.70178
0.7385	-47.63489	-15.40833	-11.48071	23.8678	-34.03931
0.739	-46.02356	-14.30054	-5.23682	26.98975	-37.56409
0.7395	-45.41931	-10.27222	-2.21558	17.82532	-44.31152
0.74	-42.39807	-8.96301	-0.90637	20.64514	-49.95117
0.7405	-28.70178	-12.38708	-2.41699	13.49487	-51.05896
0.741	-22.05505	-4.12903	-3.42407	24.27063	-54.18091
0.7415	-18.02673	-2.92053	3.32336	15.60974	-53.07312
0.742	0.20142	-3.22266	-3.52478	16.51611	-51.66321
0.7425	5.23682	4.63257	-2.5177	11.58142	-51.86462
0.743	10.17151	2.21558	-6.2439	5.33752	-42.49878
0.7435	16.61682	7.15027	1.00708	1.3092	-44.11011
0.744	20.54443	4.02832	0.90637	-2.11487	-32.62939
0.7445	32.22656	8.35876	-0.30212	1.00708	-23.26355
0.745	41.39099	10.67505	4.63257	-5.53894	-22.45789
0.7455	40.78674	12.89062	-0.10071	-15.00549	-13.19275
0.746	47.63489	16.81824	-0.30212	-14.30054	-3.62549
0.7465	51.26038	14.19983	2.11487	-21.45081	3.32336
0.747	47.03064	12.99133	-1.40991	-23.8678	9.86938
0.7475	46.92993	14.80408	0.60425	-26.08337	16.51611
0.748	49.64905	11.78284	1.2085	-28.09753	28.80249
0.7485	37.7655	10.87646	1.71204	-27.09045	31.4209
0.749	37.46338	8.7616	-4.12903	-25.07629	31.21948
0.7495	32.83081	6.94885	4.02832	-23.06213	34.44214
0.75	27.99683	8.56018	-0.30212	-28.29895	42.29736
0.7505	18.42957	6.44531	4.33044	-25.98267	47.8363
0.751	12.48779	4.53186	-0.50354	-21.24939	50.85754
0.7515	8.96301	0.50354	-0.10071	-14.19983	53.17383
0.752	-4.83398	-0.10071	-3.22266	-17.6239	54.38232
0.7525	-12.18567	-7.15027	-6.3446	-13.59558	44.61365
0.753	-16.01257	-3.52478	-3.8269	-9.97009	36.95984
0.7535	-24.87488	-6.14319	2.92053	-7.04956	37.26196
0.754	-25.07629	-9.26514	-1.3092	-2.01416	27.29187
0.7545	-38.26904	-16.51611	-5.74036	1.91345	29.50745
0.755	-44.11011	-18.22815	3.42407	7.5531	24.87488
0.7555	-44.81506	-14.30054	-2.21558	15.20691	9.36584
0.756	-56.90002	-13.39417	-3.52478	11.07788	-1.3092
0.7565	-54.78516	-18.73169	-6.64673	15.81116	-4.63257
0.757	-53.97949	-13.59558	-8.15735	20.94727	-10.77576
0.7575	-46.02356	-18.63098	-3.92761	21.14868	-26.18408
0.758	-39.27612	-17.6239	-1.10779	19.33594	-32.02515
0.7585	-49.54834	-14.30054	-2.21558	26.3855	-36.35559
0.759	-53.67737	-16.3147	-2.71912	22.86072	-38.16833
0.7595	-45.62073	-13.59558	-3.42407	25.27771	-45.72144
0.76	-40.2832	-7.15027	-0.10071	25.78125	-46.42639
0.7605	-26.08337	-10.67505	-1.61133	23.46497	-50.95825
0.761	-20.44373	-6.44531	-0.70496	21.45081	-49.64905
0.7615	-9.56726	-4.33044	-1.10779	14.80408	-52.06604
0.762	6.84814	1.81274	-0.90637	11.48071	-52.46887
0.7625	8.7616	-1.51062	-5.0354	12.38708	-51.36108
0.763	15.1062	-2.92053	-0.30212	5.63965	-40.48462
0.7635	23.56567	1.71204	-0.30212	-0.70496	-38.974
0.764	27.19116	1.71204	-0.30212	0.20142	-35.95276
0.7645	34.14001	6.54602	-0.30212	-11.07788	-29.30603
0.765	40.98816	6.94885	-0.30212	-13.89771	-19.43665
0.7655	46.32568	8.66089	-0.30212	-10.37292	-12.18567
0.766	46.22498	6.2439	-0.30212	-18.22815	-5.53894
0.7665	56.49719	13.797	-0.30212	-23.46497	5.94177
0.767	52.8717	10.97717	-0.30212	-23.66638	15.00549
0.7675	48.23914	14.70337	-0.30212	-21.75293	14.50195
0.768	47.13135	11.98425	-0.30212	-24.97559	27.89612
0.7685	41.29028	10.67505	-0.30212	-26.58691	32.32727
0.769	31.82373	15.40833	-0.30212	-28.29895	33.63647
0.7695	28.09753	8.15735	-0.30212	-23.66638	40.78674
0.77	18.42957	7.85522	-0.30212	-24.87488	43.50586
0.7705	15.40833	7.5531	-5.43823	-21.45081	41.99524
0.771	3.92761	0.80566	-4.43115	-20.24231	47.8363
0.7715	0.30212	3.02124	2.11487	-15.40833	46.82922
0.772	-10.97717	-2.01416	0.90637	-15.00549	42.19666
0.7725	-13.19275	-8.8623	4.93469	-12.38708	44.61365
0.773	-15.60974	-1.2085	6.44531	-10.17151	42.09595
0.7735	-22.6593	-5.84106	-3.12195	-7.95593	32.7301
0.774	-34.34143	-10.67505	0.40283	-2.71912	23.26355
0.7745	-40.48462	-11.68213	5.94177	5.0354	21.85364
0.775	-45.41931	-16.01257	-0.70496	10.37292	18.42957
0.7755	-50.95825	-15.1062	-4.73328	10.97717	12.89062
0.776	-51.66321	-14.19983	-7.85522	15.00549	6.84814
0.7765	-58.71277	-20.94727	-5.63965	20.24231	-8.25806
0.777	-55.08728	-21.95435	-6.14319	16.41541	-17.32178
0.7775	-49.85046	-19.83948	-6.3446	22.05505	-24.06921
0.778	-51.46179	-20.34302	-4.73328	25.37842	-29.70886
0.7785	-42.49878	-18.42957	-12.08496	23.76709	-33.43506
0.779	-45.11719	-16.41541	-2.5177	26.58691	-43.70728
0.7795	-37.66479	-18.42957	-5.94177	24.27063	-46.32568
0.78	-44.41223	-10.77576	0.90637	29.70886	-44.71436
0.7805	-32.52869	-13.99841	-2.41699	22.45789	-44.31152
0.781	-25.47913	-14.30054	-3.7262	21.45081	-48.23914
0.7815	-13.19275	-2.5177	-4.12903	24.97559	-55.3894
0.782	-6.94885	3.32336	-0.20142	8.45947	-57.20215
0.7825	0.70496	1.71204	-0.30212	6.84814	-47.93701
0.783	10.57434	6.64673	2.5177	1.2085	-44.11011
0.7835	16.81824	5.74036	2.11487	5.63965	-42.8009
0.784	24.37134	3.7262	0.40283	-0.40283	-33.13293
0.7845	30.41382	8.15735	5.94177	-6.3446	-25.88196
0.785	36.75842	12.48779	-5.74036	-5.53894	-20.24231
0.7855	41.99524	10.77576	-1.51062	-17.01965	-10.17151
0.786	47.43347	13.09204	-2.71912	-14.70337	-5.94177
0.7865	46.72852	12.68921	-2.5177	-22.55859	0.40283
0.787	50.45471	9.66797	-0.20142	-22.25647	13.19275
0.7875	47.8363	23.96851	-1.51062	-23.96851	23.46497
0.788	46.12427	15.30762	-6.64673	-23.8678	24.67346
0.7885	42.8009	12.5885	-4.33044	-26.08337	30.71594
0.789	44.0094	13.99841	-2.61841	-29.60815	34.34143
0.7895	37.46338	15.71045	-6.04248	-27.29187	44.41223
0.79	28.50037	9.36584	-9.76868	-23.06213	44.21082
0.7905	23.26355	9.86938	-1.10779	-28.39966	47.03064
0.791	13.69629	10.77576	-0.10071	-23.06213	54.98657
0.7915	6.74744	-0.80566	-2.21558	-18.02673	50.15259
0.792	-3.8269	0.70496	-7.5531	-15.00549	40.08179
0.7925	-10.37292	-6.3446	-2.5177	-8.56018	50.65613
0.793	-15.40833	-0.50354	-5.94177	-12.78992	39.27612
0.7935	-25.177	-13.797	-5.0354	-8.8623	39.98108
0.794	-28.60107	-11.98425	4.93469	-6.2439	33.83789
0.7945	-38.67188	-11.88354	1.2085	2.31628	29.60815
0.795	-44.61365	-15.50903	0.70496	9.97009	22.15576
0.7955	-47.93701	-17.92603	-4.83398	13.59558	11.07788
0.796	-51.05896	-25.88196	-5.94177	13.29346	3.02124
0.7965	-54.68445	-22.45789	-1.3092	18.32886	-11.68213
0.797	-53.97949	-20.04089	-5.13611	19.03381	-20.44373
0.7975	-50.95825	-19.03381	-5.74036	23.8678	-20.74585
0.798	-49.74976	-18.93311	-8.35876	21.3501	-25.78125
0.7985	-46.5271	-18.63098	-10.77576	23.36426	-39.77966
0.799	-45.72144	-22.25647	-7.15027	21.65222	-37.96692
0.7995	-40.88745	-19.03381	-7.04956	27.09045	-51.5625
0.8	-39.17542	-15.1062	-6.64673	24.87488	-52.06604
0.8005	-27.6947	-15.40833	-4.73328	25.68054	-50.55542
0.801	-20.44373	-12.78992	-4.53186	21.85364	-49.24622
0.8015	-7.65381	-7.15027	-4.33044	12.28638	-50.65613
0.802	-1.10779	-4.43115	0.30212	15.40833	-50.2533
0.8025	8.96301	-0.80566	1.00708	11.78284	-43.40515
0.803	10.47363	-2.81982	2.92053	8.96301	-42.90161
0.8035	19.33594	-0.50354	-2.31628	5.84106	-37.56409
0.804	24.67346	3.7262	-1.10779	5.53894	-33.73718
0.8045	29.10461	3.7262	0	-2.61841	-25.47913
0.805	35.54993	11.78284	2.11487	-10.57434	-21.65222
0.8055	44.41223	15.91187	6.04248	-14.50195	-16.71753
0.806	46.82922	12.28638	3.22266	-19.43665	-8.7616
0.8065	53.57666	20.94727	-3.12195	-20.74585	-1.81274
0.807	43.60657	10.87646	3.12195	-26.88904	6.14319
0.8075	46.12427	19.63806	4.02832	-26.68762	13.99841
0.808	38.77258	14.19983	8.15735	-27.89612	21.3501
0.8085	33.53577	14.50195	13.89771	-29.30603	24.97559
0.809	31.32019	20.64514	8.15735	-23.66638	31.72302
0.8095	33.23364	11.58142	1.91345	-32.52869	42.19666
0.81	30.01099	12.5885	2.92053	-26.08337	42.59949
0.8105	23.8678	8.15735	5.53894	-26.08337	50.95825
0.811	15.00549	4.93469	1.91345	-24.27063	44.21082
0.8115	2.92053	2.01416	0.10071	-19.94019	49.24622
0.812	-2.61841	-0.80566	0	-19.23523	45.2179
0.8125	-1.51062	-8.25806	-1.10779	-12.68921	42.7002
0.813	6.44531	-10.27222	0.20142	-5.33752	42.19666
0.8135	8.45947	-12.89062	-0.10071	-3.12195	34.24072
0.814	8.56018	-12.99133	-1.71204	-4.33044	31.72302
0.8145	-9.26514	-15.91187	-7.15027	-0.30212	21.14868
0.815	-19.03381	-15.20691	-7.95593	11.38	15.71045
0.8155	-24.67346	-20.24231	-2.01416	13.69629	3.12195
0.816	-26.58691	-21.65222	1.00708	18.53027	0.50354
0.8165	-39.27612	-23.36426	-8.35876	21.45081	-9.16443
0.817	-44.81506	-29.80957	-5.33752	25.88196	-17.22107
0.8175	-45.82214	-28.09753	-0.90637	22.6593	-25.68054
0.818	-41.39099	-29.30603	-7.35168	25.78125	-31.52161
0.8185	-42.39807	-22.86072	-1.71204	25.47913	-30.41382
0.819	-39.77966	-18.73169	-3.92761	27.6947	-34.64355
0.8195	-44.71436	-15.81116	-0.70496	23.56567	-44.81506
0.82	-46.22498	-5.53894	-1.51062	24.16992	-44.81506
0.8205	-55.89294	-6.44531	-4.33044	27.29187	-47.53418
0.821	-57.50427	10.97717	2.41699	19.83948	-48.03772
0.8215	-60.72693	17.32178	4.93469	14.60266	-57.00073
0.822	-57.50427	20.04089	0.70496	10.17151	-53.87878
0.8225	-43.40515	17.72461	-1.10779	13.29346	-43.80798
0.823	-24.77417	23.06213	0.50354	9.86938	-40.1825
0.8235	-11.17859	11.88354	0.10071	4.22974	-34.44214
0.824	6.44531	11.2793	-4.33044	-0.30212	-30.01099
0.8245	16.01257	13.19275	-3.02124	-3.12195	-25.07629
0.825	36.15417	10.0708	-2.41699	-0.60425	-19.83948
0.8255	43.60657	4.22974	0.10071	-12.68921	-15.40833
0.826	59.82056	-0.60425	-0.20142	-9.66797	-6.2439
0.8265	61.23047	2.61841	-0.50354	-22.55859	1.91345
0.827	56.49719	4.53186	-2.71912	-24.16992	17.42249
0.8275	56.5979	5.33752	-3.62549	-23.8678	18.42957
0.828	58.81348	13.19275	-9.36584	-23.8678	25.98267
0.8285	53.87878	1.10779	2.01416	-22.86072	34.44214
0.829	55.99365	0.10071	-1.00708	-24.47205	37.96692
0.8295	48.74268	0.20142	-2.5177	-26.68762	42.59949
0.83	43.40515	0.70496	-3.92761	-27.29187	39.98108
0.8305	36.85913	-3.7262	3.12195	-21.24939	50.354
0.831	30.11169	-6.44531	1.3092	-24.37134	56.5979
0.8315	22.86072	-8.7616	-6.94885	-26.3855	51.66321
0.832	6.2439	-1.40991	2.31628	-17.01965	49.74976
0.8325	-6.2439	2.61841	1.91345	-12.99133	44.0094
0.833	-14.90479	-3.42407	1.51062	-4.53186	42.19666
0.8335	-26.08337	-0.40283	-0.70496	-8.96301	31.52161
0.834	-40.58533	-7.25098	0.10071	-5.33752	23.06213
0.8345	-53.37524	-6.44531	-3.42407	0.90637	22.6593
0.835	-64.55383	-10.17151	-1.51062	12.38708	23.26355
0.8355	-62.33826	-11.98425	-6.64673	13.89771	9.97009
0.836	-67.67578	-17.12036	-3.02124	13.69629	-3.02124
0.8365	-72.30835	-15.60974	0.80566	20.84656	-5.94177
0.837	-71.50269	-16.41541	-6.3446	22.76001	-10.87646
0.8375	-64.75525	-21.65222	-3.52478	16.01257	-27.99683
0.838	-55.79224	-23.06213	-10.57434	25.37842	-26.98975
0.8385	-43.90869	-25.47913	-7.5531	24.77417	-30.91736
0.839	-43.00232	-18.32886	-2.5177	25.68054	-35.44922
0.8395	-36.35559	-18.32886	-6.3446	28.60107	-47.93701
0.84	-29.91028	-16.81824	-5.13611	20.44373	-43.90869
0.8405	-27.09045	-13.19275	-3.52478	16.3147	-49.95117
0.841	-17.01965	-9.16443	-1.10779	21.45081	-53.57666
0.8415	-12.5885	-9.06372	-2.11487	16.3147	-59.41772
0.842	-9.56726	-7.65381	-5.13611	15.00549	-45.92285
0.8425	-12.18567	7.75452	2.31628	10.97717	-44.61365
0.843	-6.3446	-0.30212	8.05664	10.67505	-46.62781
0.8435	1.3092	13.19275	3.22266	6.2439	-35.65063
0.844	7.15027	14.50195	5.53894	-3.32336	-30.91736
0.8445	15.91187	13.19275	-7.85522	-5.84106	-29.80957
0.845	22.25647	15.1062	-0.90637	-7.15027	-21.65222
0.8455	32.93152	17.42249	1.61133	-13.89771	-16.61682
0.846	40.58533	16.91895	2.92053	-13.09204	-2.5177
0.8465	45.41931	14.30054	-2.11487	-25.177	-0.20142
0.847	36.05347	10.47363	-0.20142	-21.85364	14.30054
0.8475	45.11719	15.40833	4.22974	-26.48621	18.42957
0.848	42.8009	9.26514	-2.5177	-27.6947	26.48621
0.8485	38.36975	13.797	2.11487	-22.96143	31.92444
0.849	38.06763	7.15027	-4.22974	-26.78833	39.57825
0.8495	28.19824	-0.50354	-3.7262	-29.30603	40.48462
0.85	23.26355	6.2439	2.61841	-27.59399	51.26038
0.8505	17.82532	6.94885	0.40283	-22.86072	50.2533
0.851	10.57434	-1.61133	-6.54602	-21.45081	46.5271
0.8515	8.15735	-0.60425	-3.42407	-18.93311	48.44055
0.852	-8.25806	-1.3092	-1.51062	-11.78284	48.54126
0.8525	-8.96301	-1.61133	3.22266	-14.80408	40.2832
0.853	-17.52319	-11.17859	-4.53186	-9.16443	39.07471
0.8535	-26.88904	-9.56726	-9.06372	-13.797	32.52869
0.854	-26.68762	-10.17151	-4.93469	-5.94177	30.31311
0.8545	-37.46338	-12.89062	-1.3092	1.40991	28.09753
0.855	-41.99524	-9.56726	-3.62549	4.93469	19.63806
0.8555	-44.11011	-17.52319	-1.10779	11.68213	5.74036
0.856	-47.03064	-20.44373	-5.13611	15.81116	-2.71912
0.8565	-51.86462	-19.63806	-7.95593	14.30054	-7.04956
0.857	-50.65613	-11.58142	-3.7262	19.53735	-15.00549
0.8575	-53.27454	-17.92603	-7.45239	18.8324	-20.64514
0.858	-53.97949	-24.77417	-2.21558	25.27771	-26.78833
0.8585	-46.62781	-19.83948	-5.53894	24.27063	-33.13293
0.859	-42.59949	-15.20691	-8.15735	25.88196	-39.77966
0.8595	-40.2832	-12.68921	-7.35168	29.10461	-44.61365
0.86	-33.33435	-9.56726	-4.83398	22.55859	-42.19666
0.8605	-36.95984	-5.74036	1.10779	29.70886	-51.66321
0.861	-25.68054	-5.13611	-2.5177	18.22815	-50.75684
0.8615	-13.39417	-5.13611	-2.41699	14.09912	-50.2533
0.862	-5.33752	-5.13611	-2.61841	10.27222	-51.66321
0.8625	3.42407	-5.13611	-0.50354	4.93469	-49.44763
0.863	12.89062	-5.13611	1.2085	1.3092	-40.58533
0.8635	20.04089	-5.13611	-0.80566	-2.71912	-37.96692
0.864	27.6947	-5.13611	-0.70496	-4.43115	-33.13293
0.8645	26.08337	-5.13611	-2.92053	-5.94177	-28.50037
0.865	39.67896	-5.13611	1.3092	-8.96301	-22.96143
0.8655	42.39807	-5.13611	2.41699	-13.19275	-9.36584
0.866	42.8009	-5.13611	5.53894	-12.28638	-2.71912
0.8665	54.18091	-5.13611	1.3092	-17.42249	12.18567
0.867	55.49011	-5.13611	3.92761	-28.9032	18.53027
0.8675	51.05896	-5.13611	-0.30212	-17.72461	17.42249
0.868	45.82214	-5.13611	-3.92761	-27.6947	29.70886
0.8685	47.63489	11.68213	-0.90637	-28.29895	38.77258
0.869	40.38391	17.12036	-2.71912	-28.70178	41.59241
0.8695	36.05347	3.92761	-3.32336	-28.50037	49.24622
0.87	24.37134	5.63965	-1.71204	-24.57275	46.72852
0.8705	22.6593	6.44531	-0.90637	-29.50745	44.81506
0.871	14.90479	5.94177	-0.80566	-22.6593	53.07312
0.8715	8.25806	-0.10071	2.31628	-22.25647	51.86462
0.872	2.11487	2.31628	0.90637	-20.04089	50.55542
0.8725	-4.53186	-3.12195	0.50354	-13.49487	44.21082
0.873	-21.55151	-1.61133	-0.60425	-7.35168	41.39099
0.8735	-26.48621	-3.42407	-2.92053	-3.42407	39.37683
0.874	-28.39966	-10.37292	0.10071	-7.5531	24.06921
0.8745	-36.25488	-13.09204	-1.10779	1.10779	22.25647
0.875	-43.90869	-15.60974	-7.15027	0.90637	17.92603
0.8755	-46.22498	-15.81116	-4.12903	13.19275	10.37292
0.876	-52.46887	-17.22107	-6.54602	15.40833	0.60425
0.8765	-57.50427	-14.70337	-1.3092	23.8678	-6.54602
0.877	-54.28162	-16.41541	0.30212	24.87488	-13.59558
0.8775	-49.64905	-16.41541	-0.90637	23.56567	-23.46497
0.878	-51.46179	-17.32178	-3.02124	29.60815	-38.67188
0.8785	-50.85754	-12.38708	-8.7616	25.98267	-40.78674
0.879	-44.71436	-10.27222	-1.91345	24.06921	-40.58533
0.8795	-42.39807	-13.99841	-4.73328	26.88904	-51.76392
0.88	-41.79382	-8.35876	3.92761	25.27771	-44.0094
0.8805	-34.84497	-1.10779	-3.7262	25.88196	-45.62073
0.881	-25.47913	-5.33752	-1.10779	18.73169	-51.15967
0.8815	-11.48071	-1.3092	-1.10779	18.22815	-52.46887
0.882	-4.73328	1.61133	-2.71912	10.47363	-55.08728
0.8825	2.81982	-1.3092	-3.8269	11.48071	-41.18958
0.883	8.56018	1.61133	-0.20142	13.39417	-35.54993
0.8835	21.45081	4.22974	-1.71204	7.65381	-38.06763
0.884	25.177	2.71912	-3.12195	4.93469	-31.4209
0.8845	34.54285	4.33044	-5.74036	-1.2085	-18.02673
0.885	51.5625	6.04248	0.10071	-13.59558	-11.2793
0.8855	52.36816	1.71204	-2.71912	-13.09204	-3.42407
0.886	53.37524	9.36584	0.80566	-20.74585	-4.12903
0.8865	54.28162	18.02673	0.50354	-15.30762	5.43823
0.887	47.43347	18.12744	0.10071	-18.63098	11.68213
0.8875	46.5271	16.81824	-2.01416	-21.24939	22.6593
0.888	45.2179	17.12036	0.80566	-23.46497	25.47913
0.8885	43.00232	11.07788	1.40991	-25.88196	33.73718
0.889	31.62231	13.19275	-0.90637	-26.3855	40.58533
0.8895	32.62939	9.76868	5.0354	-29.80957	46.92993
0.89	26.78833	1.71204	3.02124	-26.28479	50.2533
0.8905	21.85364	1.91345	-0.80566	-25.68054	55.69153
0.891	13.29346	-1.81274	1.2085	-24.87488	49.44763
0.8915	-0.50354	-7.15027	-0.70496	-23.26355	52.46887
0.892	-10.37292	-6.94885	-0.10071	-17.82532	49.0448
0.8925	-15.00549	-8.56018	3.92761	-10.67505	52.8717
0.893	-22.35718	-10.67505	3.52478	-9.97009	51.46179
0.8935	-29.00391	-7.95593	5.94177	-2.71912	36.35559
0.894	-35.14709	-9.16443	2.21558	0	33.43506
0.8945	-34.44214	-14.70337	-4.33044	-5.84106	20.34302
0.895	-32.02515	-14.40125	0.50354	7.35168	18.32886
0.8955	-29.91028	-12.28638	0.50354	9.36584	3.7262
0.896	-31.32019	-16.01257	3.62549	13.99841	-5.94177
0.8965	-46.22498	-16.51611	2.31628	19.03381	-10.47363
0.897	-40.88745	-20.94727	0.20142	22.05505	-18.02673
0.8975	-52.26746	-18.02673	0	22.25647	-23.06213
0.898	-47.33276	-17.6239	-2.31628	27.49329	-30.11169
0.8985	-50.2533	-17.52319	-1.61133	25.47913	-36.65771
0.899	-45.92285	-15.81116	-2.31628	21.85364	-38.87329
0.8995	-39.37683	-15.40833	-2.5177	30.01099	-50.95825
0.9	-33.63647	-8.45947	-9.56726	22.25647	-50.45471
0.9005	-27.09045	-8.8623	-5.94177	27.19116	-45.82214
0.901	-21.04797	-9.36584	-6.44531	21.45081	-51.05896
0.9015	-9.97009	-3.42407	-0.70496	16.21399	-53.17383
0.902	-2.92053	2.92053	-0.10071	9.46655	-48.03772
0.9025	-1.91345	-3.42407	-1.51062	7.75452	-45.62073
0.903	7.45239	5.84106	0.90637	4.12903	-42.59949
0.9035	18.02673	5.53894	3.22266	0.50354	-39.98108
0.904	22.15576	7.5531	0.90637	-1.2085	-33.33435
0.9045	27.09045	5.94177	-1.91345	-3.12195	-32.83081
0.905	40.38391	13.29346	2.41699	-12.99133	-20.04089
0.9055	44.51294	11.38	1.10779	-12.5885	-15.30762
0.906	51.76392	12.5885	2.61841	-16.01257	-7.15027
0.9065	52.67029	13.19275	0.20142	-25.07629	0.10071
0.907	52.8717	18.63098	0.90637	-23.96851	9.97009
0.9075	40.48462	12.38708	1.3092	-27.49329	18.22815
0.908	44.81506	8.56018	-5.53894	-29.91028	27.6947
0.9085	39.27612	11.38	-2.31628	-25.27771	38.87329
0.909	39.67896	9.56726	-2.31628	-28.29895	34.03931
0.9095	41.18958	9.76868	0.60425	-28.39966	39.57825
0.91	29.40674	1.91345	0.70496	-32.22656	44.51294
0.9105	26.28479	0	-2.5177	-26.3855	40.78674
0.911	11.78284	3.22266	-0.30212	-18.22815	46.5271
0.9115	10.97717	-9.36584	4.12903	-17.01965	49.0448
0.912	5.84106	-16.11328	-0.80566	-15.00549	46.42639
0.9125	1.10779	-8.35876	3.92761	-16.71753	42.19666
0.913	-15.81116	-8.96301	-1.51062	-5.63965	37.26196
0.9135	-26.68762	-7.75452	2.71912	-2.41699	35.44922
0.914	-36.35559	-7.35168	-1.10779	3.8269	32.32727
0.9145	-41.39099	-4.33044	0.80566	2.71912	27.79541
0.915	-50.95825	-9.97009	-3.7262	11.38	15.50903
0.9155	-50.15259	-15.60974	0.30212	6.94885	11.07788
0.916	-57.60498	-15.00549	-0.30212	17.01965	-1.40991
0.9165	-59.51843	-14.80408	2.31628	21.3501	-7.15027
0.917	-51.66321	-16.01257	3.32336	25.07629	-18.53027
0.9175	-49.85046	-13.49487	-6.84814	17.52319	-28.19824
0.918	-47.93701	-18.93311	-6.3446	22.76001	-33.43506
0.9185	-44.81506	-14.30054	-3.22266	23.76709	-29.91028
0.919	-40.68604	-17.52319	-1.91345	29.30603	-42.8009
0.9195	-42.59949	-12.38708	2.01416	24.47205	-40.78674
0.92	-32.52869	-21.24939	-7.65381	32.52869	-52.06604
0.9205	-28.29895	-6.94885	-2.61841	26.18408	-49.85046
0.921	-19.33594	-8.96301	-5.33752	22.55859	-52.26746
0.9215	-9.36584	-5.33752	4.83398	19.43665	-53.37524
0.922	0.50354	-5.33752	2.31628	4.83398	-50.95825
0.9225	2.5177	-6.44531	-0.40283	8.56018	-47.93701
0.923	12.08496	-4.93469	-1.3092	5.84106	-45.11719
0.9235	13.89771	2.31628	-4.12903	-1.51062	-34.64355
0.924	19.63806	7.25098	-0.60425	-1.51062	-32.12585
0.9245	20.24231	5.43823	1.2085	-4.12903	-29.60815
0.925	27.6947	16.61682	-3.22266	-4.73328	-18.42957
0.9255	36.95984	14.70337	6.64673	-10.77576	-14.40125
0.926	45.2179	9.86938	-2.21558	-22.15576	-2.21558
0.9265	51.76392	13.59558	-4.33044	-27.99683	3.42407
0.927	52.46887	1.71204	-2.41699	-26.58691	15.50903
0.9275	56.69861	10.97717	1.91345	-27.89612	17.42249
0.928	56.39648	11.78284	4.73328	-21.45081	19.53735
0.9285	47.63489	12.08496	-4.63257	-22.86072	35.54993
0.929	49.64905	8.25806	2.31628	-25.07629	46.22498
0.9295	50.95825	8.56018	-1.91345	-26.28479	44.11011
0.93	40.88745	0.20142	5.13611	-25.57983	52.26746
0.9305	34.94568	1.10779	2.31628	-21.55151	46.42639
0.931	15.81116	-6.54602	6.74744	-20.44373	44.51294
0.9315	6.14319	-5.53894	-0.40283	-21.45081	47.23206
0.932	-4.12903	-7.65381	-3.32336	-19.13452	47.33276
0.9325	-13.49487	-6.14319	-0.60425	-12.38708	39.37683
0.933	-28.50037	-7.95593	1.51062	-16.21399	40.98816
0.9335	-48.23914	-7.95593	0	-5.43823	38.36975
0.934	-56.19507	-6.2439	1.61133	-3.8269	29.50745
0.9345	-61.53259	-5.0354	-3.42407	8.96301	25.57983
0.935	-69.08569	-9.46655	-2.5177	9.36584	19.94019
0.9355	-70.3949	-13.99841	-8.8623	11.48071	6.54602
0.936	-61.12976	-18.22815	0.70496	13.09204	1.3092
0.9365	-62.23755	-19.73877	1.10779	21.75293	-9.46655
0.937	-52.56958	-15.40833	-3.92761	24.67346	-22.05505
0.9375	-57.60498	-11.98425	-2.21558	24.47205	-31.11877
0.938	-60.02197	-15.81116	-1.3092	24.77417	-28.50037
0.9385	-56.19507	-12.68921	-0.10071	27.99683	-33.9386
0.939	-52.97241	-16.61682	-0.40283	25.177	-39.17542
0.9395	-33.73718	-14.80408	-0.80566	21.85364	-41.4917
0.94	-18.42957	-15.71045	-6.84814	29.40674	-47.63489
0.9405	-13.797	-20.74585	-5.33752	28.50037	-46.32568
0.941	-6.3446	-13.59558	-6.84814	20.04089	-57.70569
0.9415	11.48071	-7.35168	-3.52478	19.63806	-53.47595
0.942	14.19983	-10.17151	-5.94177	13.59558	-44.21082
0.9425	18.12744	-0.30212	-3.7262	7.15027	-48.23914
0.943	20.24231	0.30212	1.00708	5.23682	-48.23914
0.9435	28.19824	0.70496	-3.52478	6.54602	-38.47046
0.944	29.00391	1.00708	-0.10071	0.50354	-26.08337
0.9445	31.92444	0.30212	-1.91345	-10.57434	-21.45081
0.945	39.77966	7.5531	-3.8269	-7.5531	-19.13452
0.9455	44.0094	11.78284	-3.02124	-12.89062	-8.05664
0.946	42.29736	2.71912	-0.10071	-12.28638	4.22974
0.9465	49.74976	13.09204	1.00708	-26.48621	6.74744
0.947	42.7002	8.96301	-1.3092	-24.67346	15.40833
0.9475	25.57983	19.33594	-3.32336	-26.68762	18.93311
0.948	15.91187	23.56567	-9.26514	-24.37134	30.91736
0.9485	8.45947	19.83948	-1.40991	-26.68762	33.9386
0.949	15.40833	15.71045	2.31628	-21.95435	39.77966
0.9495	18.12744	9.46655	0.10071	-29.20532	43.10303
0.95	15.60974	11.48071	0.20142	-25.27771	46.42639
0.9505	12.89062	12.08496	-1.61133	-26.98975	48.74268
0.951	4.53186	0	-1.10779	-26.08337	46.02356
0.9515	-1.71204	-0.10071	-8.96301	-20.24231	51.26038
0.952	-10.67505	-1.00708	-7.5531	-20.04089	47.43347
0.9525	-17.6239	-3.8269	0.10071	-12.18567	46.5271
0.953	-20.1416	-3.92761	0.20142	-6.3446	38.16833
0.9535	-31.92444	-10.37292	-0.30212	-3.7262	34.94568
0.954	-31.72302	-7.15027	-9.16443	-3.42407	26.68762
0.9545	-35.34851	-11.2793	-3.92761	4.22974	25.47913
0.955	-49.64905	-9.46655	-3.7262	4.93469	19.03381
0.9555	-49.44763	-17.01965	1.10779	7.85522	7.75452
0.956	-57.00073	-12.18567	2.61841	9.66797	-0.30212
0.9565	-62.74109	-18.42957	2.5177	20.64514	-7.35168
0.957	-55.3894	-9.56726	-1.61133	14.60266	-14.40125
0.9575	-55.2887	-13.797	-4.12903	24.97559	-28.09753
0.958	-56.90002	-14.40125	-3.92761	19.63806	-26.3855
0.9585	-51.26038	-16.11328	-8.56018	25.27771	-38.36975
0.959	-48.94409	-13.19275	-2.11487	23.56567	-41.39099
0.9595	-45.11719	-10.97717	-6.3446	21.75293	-47.43347
0.96	-38.26904	-9.56726	-8.35876	23.56567	-45.62073
0.9605	-23.26355	-10.87646	-5.63965	26.48621	-49.44763
0.961	-10.17151	-4.33044	-11.17859	20.94727	-56.29578
0.9615	10.37292	-10.97717	-1.51062	13.19275	-58.91418
0.962	27.89612	-10.37292	-0.20142	8.7616	-52.26746
0.9625	34.74426	-13.49487	-6.14319	9.97009	-47.23206
0.963	40.78674	-7.95593	0.50354	7.25098	-45.82214
0.9635	42.90161	-7.5531	-1.10779	8.56018	-39.77966
0.964	43.80798	1.91345	-3.7262	-0.10071	-27.29187
0.9645	43.60657	9.97009	3.22266	0.10071	-25.88196
0.965	50.85754	4.22974	-0.20142	-6.3446	-27.6947
0.9655	55.99365	-1.10779	-0.50354	-17.72461	-17.52319
0.966	53.77808	-8.8623	2.31628	-12.78992	-1.3092
0.9665	52.8717	5.53894	5.53894	-22.96143	6.94885
0.967	55.2887	7.75452	-2.5177	-20.94727	13.49487
0.9675	44.21082	5.53894	-2.92053	-22.86072	14.30054
0.968	38.87329	13.99841	-0.30212	-20.74585	29.10461
0.9685	23.16284	16.71753	4.93469	-27.99683	35.65063
0.969	8.7616	19.03381	-2.11487	-31.92444	35.14709
0.9695	8.96301	16.81824	2.5177	-26.78833	42.09595
0.97	2.11487	17.72461	-0.90637	-24.47205	41.89453
0.9705	0.80566	11.98425	0.50354	-22.86072	41.59241
0.971	-4.33044	11.58142	0.20142	-28.39966	48.64197
0.9715	-7.35168	1.51062	-5.53894	-21.65222	51.46179
0.972	-8.25806	2.71912	-2.81982	-12.89062	50.354
0.9725	-2.92053	-5.74036	-7.35168	-16.01257	34.84497
0.973	-4.93469	-15.40833	-0.10071	-8.56018	37.7655
0.9735	-8.56018	-13.99841	0	-4.12903	35.65063
0.974	-18.02673	-10.87646	2.01416	1.51062	32.42798
0.9745	-28.29895	-18.93311	0.90637	5.33752	21.55151
0.975	-33.13293	-18.8324	-4.93469	14.70337	6.94885
0.9755	-39.57825	-18.8324	-2.5177	20.34302	6.14319
0.976	-42.19666	-19.23523	-5.43823	17.92603	-2.92053
0.9765	-46.02356	-22.86072	-0.30212	28.09753	-8.35876
0.977	-47.93701	-19.53735	-0.70496	25.27771	-17.92603
0.9775	-58.51135	-23.96851	-4.02832	28.09753	-25.07629
0.978	-65.56091	-17.72461	-0.90637	28.09753	-26.28479
0.9785	-58.71277	-13.59558	-3.52478	26.28479	-35.75134
0.979	-59.51843	-15.40833	-1.81274	27.29187	-39.17542
0.9795	-54.28162	-15.50903	-3.12195	29.91028	-46.72852
0.98	-51.26038	-13.59558	-2.92053	27.29187	-45.82214
0.9805	-51.86462	-0.90637	-1.00708	23.76709	-50.45471
0.981	-48.03772	-0.30212	-3.32336	24.47205	-51.26038
0.9815	-30.51453	-0.70496	-2.5177	14.30054	-51.15967
0.982	-21.45081	4.93469	1.10779	17.92603	-47.53418
0.9825	-10.67505	3.7262	1.40991	7.35168	-41.59241
0.983	2.41699	8.35876	-5.0354	6.54602	-37.96692
0.9835	7.85522	8.7616	3.32336	3.32336	-44.41223
0.984	23.06213	11.2793	-1.10779	-1.91345	-35.75134
0.9845	24.87488	11.38	3.8269	-5.53894	-26.58691
0.985	39.98108	18.73169	-0.10071	-11.07788	-16.71753
0.9855	38.47046	11.98425	0.20142	-20.84656	-7.35168
0.986	46.12427	11.98425	-3.92761	-22.86072	-5.94177
0.9865	58.41064	14.80408	-3.42407	-24.06921	4.22974
0.987	52.67029	8.66089	2.31628	-24.37134	14.50195
0.9875	50.45471	6.64673	-3.12195	-27.09045	10.17151
0.988	44.71436	5.74036	-5.13611	-22.05505	23.06213
0.9885	50.45471	10.97717	-5.74036	-21.24939	29.50745
0.989	50.85754	6.84814	-6.44531	-18.32886	35.34851
0.9895	43.00232	7.75452	-0.50354	-18.8324	44.71436
0.99	32.32727	3.8269	-4.22974	-27.39258	50.15259
0.9905	23.96851	3.22266	-5.94177	-24.67346	47.53418
0.991	19.83948	3.32336	-5.0354	-22.45789	52.46887
0.9915	6.3446	-2.21558	-6.54602	-13.99841	48.94409
0.992	6.74744	-4.33044	-8.45947	-12.68921	48.23914
0.9925	-5.84106	-4.12903	-1.51062	-10.57434	45.41931
0.993	-7.15027	-8.35876	-4.12903	-8.35876	47.63489
0.9935	-21.85364	-10.57434	-0.70496	1.51062	37.7655
0.994	-29.00391	-11.78284	-9.36584	10.37292	34.64355
0.9945	-33.73718	-11.98425	-11.2793	7.15027	27.79541
0.995	-39.27612	-16.51611	-3.32336	10.67505	21.04797
0.9955	-43.30444	-12.18567	-5.53894	15.00549	13.49487
0.996	-46.62781	-14.09912	-15.20691	16.21399	3.42407
0.9965	-47.23206	-16.61682	-5.53894	21.65222	-3.42407
0.997	-51.86462	-10.77576	-8.7616	21.45081	-13.89771
0.9975	-49.44763	-4.63257	-7.45239	18.22815	-20.84656
0.998	-51.86462	-10.17151	-9.36584	20.64514	-28.39966
0.9985	-49.0448	-9.06372	-4.43115	23.66638	-35.75134
0.999	-51.96533	-6.3446	-3.52478	25.07629	-38.47046
0.9995	-46.82922	-10.57434	0.20142	28.09753	-43.70728
1	-43.80798	-6.14319	3.52478	19.53735	-54.88586
1.0005	-43.40515	-6.84814	12.89062	25.07629	-54.68445
1.001	-26.78833	-4.02832	10.37292	19.03381	-54.28162
1.0015	-16.3147	-5.74036	13.59558	15.00549	-58.00781
1.002	-15.20691	0.60425	8.45947	13.19275	-53.57666
1.0025	-6.84814	-2.71912	5.74036	6.44531	-50.05188
1.003	5.84106	1.61133	10.67505	-0.90637	-51.26038
1.0035	18.53027	-2.71912	5.94177	1.81274	-42.19666
1.004	24.77417	9.46655	5.53894	1.81274	-39.77966
1.0045	25.68054	8.66089	-0.30212	-0.80566	-27.6947
1.005	44.31152	10.27222	-0.70496	-6.3446	-22.55859
1.0055	52.36816	9.16443	-0.90637	-14.50195	-7.5531
1.006	47.43347	7.5531	-1.2085	-11.17859	-3.62549
1.0065	57.30286	14.50195	5.13611	-20.44373	2.61841
1.007	51.36108	13.59558	4.12903	-22.55859	18.32886
1.0075	50.85754	12.5885	3.32336	-23.46497	23.06213
1.008	49.0448	5.23682	-2.71912	-25.37842	30.91736
1.0085	38.974	4.83398	-1.81274	-20.34302	32.02515
1.009	41.18958	0.30212	2.01416	-26.18408	36.15417
1.0095	46.12427	5.33752	5.53894	-22.05505	40.2832
1.01	43.50586	6.2439	-1.2085	-25.27771	47.13135
1.0105	33.33435	2.31628	-0.10071	-21.04797	50.45471
1.011	30.41382	-2.5177	-3.42407	-19.23523	48.74268
1.0115	20.84656	-2.61841	-1.51062	-18.63098	45.72144
1.012	10.27222	0.30212	-6.94885	-12.48779	47.7356
1.0125	5.33752	-9.76868	-0.10071	-8.66089	46.32568
1.013	-4.12903	-11.78284	-3.42407	-11.2793	44.51294
1.0135	-12.5885	-17.42249	-0.50354	-3.8269	37.06055
1.014	-22.55859	-18.22815	-3.8269	-2.21558	29.30603
1.0145	-34.54285	-13.99841	1.71204	-1.10779	23.8678
1.015	-54.98657	-14.90479	4.02832	1.81274	10.57434
1.0155	-68.88428	-7.85522	1.51062	11.68213	2.31628
1.016	-77.84729	-9.66797	5.13611	24.27063	-1.81274
1.0165	-87.11243	-10.17151	0.10071	16.71753	-6.3446
1.017	-78.65295	-2.92053	-0.70496	23.8678	-20.74585
1.0175	-75.93384	-3.92761	1.51062	20.44373	-34.24072
1.018	-69.48853	-9.46655	-2.31628	26.28479	-38.974
1.0185	-63.14392	-2.01416	-2.41699	26.48621	-38.26904
1.019	-56.90002	-7.75452	-5.0354	23.26355	-40.08179
1.0195	-51.15967	-7.35168	2.01416	23.56567	-50.85754
1.02	-39.57825	-8.96301	-0.10071	27.79541	-48.54126
1.0205	-26.88904	-14.80408	-0.50354	21.14868	-53.17383
1.021	-16.01257	-10.57434	-7.25098	17.92603	-54.68445
1.0215	2.01416	-7.35168	-11.68213	12.38708	-56.09436
1.022	17.52319	-5.84106	-1.81274	6.64673	-48.64197
1.0225	29.91028	-2.92053	-2.61841	8.15735	-50.05188
1.023	36.4563	-0.90637	-5.0354	11.17859	-39.17542
1.0235	43.30444	4.22974	-1.61133	1.91345	-39.27612
1.024	39.77966	1.81274	0.40283	2.11487	-30.91736
1.0245	47.43347	3.7262	1.71204	-7.04956	-30.01099
1.025	55.08728	-0.10071	7.15027	-12.78992	-11.48071
1.0255	58.71277	0.90637	-0.10071	-16.41541	-6.04248
1.026	60.3241	3.32336	-3.62549	-26.88904	-3.52478
1.0265	68.38074	2.5177	-7.5531	-23.66638	2.71912
1.027	67.07153	-2.5177	-9.97009	-24.57275	11.48071
1.0275	56.5979	-5.53894	-8.96301	-25.68054	28.9032
1.028	55.59082	3.52478	-2.11487	-30.2124	26.3855
1.0285	45.92285	3.42407	-2.01416	-30.31311	31.32019
1.029	31.92444	8.05664	1.40991	-29.10461	34.44214
1.0295	14.19983	6.64673	-0.30212	-29.70886	39.37683
1.03	2.21558	11.48071	0.50354	-28.39966	42.29736
1.0305	-10.57434	10.57434	0.40283	-26.28479	45.72144
1.031	-11.38	5.53894	-0.10071	-20.24231	45.3186
1.0315	-15.60974	2.31628	0.50354	-13.39417	51.26038
1.032	-18.63098	-3.12195	0.50354	-14.70337	49.74976
1.0325	-22.6593	-0.30212	1.81274	-12.18567	45.11719
1.033	-34.84497	-5.33752	4.83398	-9.06372	36.4563
1.0335	-44.21082	-5.13611	-3.12195	0.90637	38.36975
1.034	-46.02356	-1.10779	2.11487	-3.92761	33.33435
1.0345	-49.85046	-2.71912	0.30212	-3.7262	21.65222
1.035	-54.98657	-8.35876	1.51062	7.45239	15.50903
1.0355	-59.51843	-14.70337	1.71204	10.17151	8.7616
1.036	-58.91418	-13.69629	-0.40283	15.60974	1.3092
1.0365	-62.33826	-18.12744	-2.21558	19.13452	-6.84814
1.037	-61.02905	-15.30762	-5.74036	18.42957	-15.20691
1.0375	-50.354	-17.01965	-5.53894	18.32886	-28.09753
1.038	-55.69153	-23.26355	-1.71204	16.81824	-32.02515
1.0385	-52.46887	-14.30054	-5.13611	22.6593	-38.57117
1.039	-47.7356	-13.09204	-7.75452	22.35718	-42.59949
1.0395	-47.53418	-7.5531	-3.7262	25.37842	-43.10303
1.04	-44.0094	-12.48779	0.70496	25.37842	-41.08887
1.0405	-35.65063	-13.797	1.51062	21.45081	-50.95825
1.041	-25.47913	-4.02832	0.10071	28.09753	-53.97949
1.0415	-14.19983	-7.75452	-4.93469	24.57275	-49.44763
1.042	-6.84814	-5.94177	-0.60425	7.65381	-48.13843
1.0425	7.5531	-5.53894	-2.31628	8.45947	-44.0094
1.043	10.77576	3.62549	3.92761	7.35168	-40.1825
1.0435	21.45081	4.73328	-0.30212	3.52478	-33.23364
1.044	24.77417	8.7616	0.30212	-6.94885	-34.64355
1.0445	25.37842	4.53186	1.10779	-1.3092	-24.77417
1.045	30.41382	10.77576	2.01416	-13.09204	-19.43665
1.0455	45.01648	21.85364	0.10071	-15.71045	-9.97009
1.046	48.03772	13.39417	-3.12195	-17.42249	-5.94177
1.0465	52.06604	8.25806	-1.00708	-22.35718	1.61133
1.047	49.14551	12.68921	-1.10779	-21.24939	15.00549
1.0475	51.96533	10.17151	1.10779	-17.22107	23.76709
1.048	49.85046	13.39417	-3.02124	-21.24939	26.18408
1.0485	35.54993	6.74744	-0.50354	-18.8324	31.4209
1.049	45.72144	8.7616	4.12903	-29.10461	39.67896
1.0495	43.90869	-0.80566	-4.83398	-29.70886	43.80798
1.05	33.83789	6.54602	-0.10071	-29.30603	42.7002
1.0505	18.93311	10.0708	2.5177	-33.73718	44.41223
1.051	10.67505	4.63257	-4.33044	-23.66638	44.0094
1.0515	-0.50354	1.91345	-0.10071	-18.73169	43.50586
1.052	-1.71204	-1.00708	2.71912	-13.59558	39.57825
1.0525	-5.23682	-7.95593	0	-12.18567	42.59949
1.053	-14.60266	-6.3446	-3.42407	-5.43823	40.48462
1.0535	-17.6239	-13.49487	-4.22974	-7.25098	37.16125
1.054	-23.16284	-10.37292	0.80566	3.7262	30.61523
1.0545	-34.03931	-23.8678	3.8269	6.54602	26.48621
1.055	-44.61365	-16.51611	1.51062	6.54602	11.38
1.0555	-46.42639	-19.83948	-5.13611	11.58142	5.23682
1.056	-47.23206	-16.71753	0.50354	16.3147	1.91345
1.0565	-57.20215	-22.05505	-2.01416	31.11877	-8.45947
1.057	-49.24622	-20.64514	-2.21558	28.09753	-13.19275
1.0575	-46.42639	-20.44373	-7.85522	21.24939	-22.45789
1.058	-47.8363	-21.65222	-6.54602	21.75293	-31.4209
1.0585	-51.66321	-20.24231	0.80566	26.18408	-33.63647
1.059	-52.06604	-11.48071	1.2085	28.29895	-36.35559
1.0595	-45.01648	-9.26514	-3.92761	22.45789	-43.80798
1.06	-41.59241	-13.09204	-3.7262	26.48621	-47.13135
1.0605	-34.94568	-8.96301	-2.5177	27.49329	-47.53418
1.061	-25.47913	-6.94885	-1.2085	22.05505	-51.66321
1.0615	-10.57434	-0.10071	-8.66089	13.39417	-50.65613
1.062	0.90637	3.92761	0.30212	20.54443	-52.56958
1.0625	1.91345	-5.43823	-6.94885	13.09204	-45.11719
1.063	12.18567	1.40991	-1.10779	3.92761	-41.18958
1.0635	19.23523	6.84814	-0.10071	-1.2085	-41.18958
1.064	25.78125	11.78284	-1.40991	-5.53894	-31.11877
1.0645	31.72302	10.87646	0.20142	-2.5177	-29.20532
1.065	37.7655	15.20691	1.71204	-9.36584	-22.45789
1.0655	52.771	10.47363	2.31628	-13.89771	-7.5531
1.066	49.0448	12.28638	1.10779	-20.04089	-7.5531
1.0665	50.45471	17.32178	-1.3092	-24.87488	0.70496
1.067	44.0094	12.99133	1.71204	-23.06213	14.19983
1.0675	52.06604	9.76868	0.30212	-26.48621	23.26355
1.068	39.57825	7.5531	2.92053	-29.70886	29.50745
1.0685	42.39807	9.46655	2.31628	-29.91028	26.88904
1.069	41.29028	7.85522	-5.0354	-23.66638	33.23364
1.0695	35.85205	9.66797	-5.23682	-25.07629	42.90161
1.07	29.80957	10.87646	-2.71912	-25.88196	44.21082
1.0705	20.64514	4.73328	-2.31628	-26.78833	48.03772
1.071	9.97009	2.5177	-2.81982	-21.24939	50.85754
1.0715	4.53186	1.81274	-2.41699	-17.42249	50.85754
1.072	0.30212	-0.10071	-2.31628	-12.99133	42.59949
1.0725	-9.16443	-6.64673	0.30212	-15.00549	38.87329
1.073	-11.07788	-12.18567	6.74744	-7.95593	40.38391
1.0735	-23.06213	-10.17151	1.61133	-5.63965	37.7655
1.074	-33.23364	-9.97009	0.70496	-5.13611	26.78833
1.0745	-37.06055	-9.46655	-0.50354	8.15735	21.85364
1.075	-44.21082	-18.93311	-6.3446	3.02124	17.82532
1.0755	-48.03772	-22.86072	1.3092	10.17151	4.53186
1.076	-50.85754	-20.54443	-2.92053	19.33594	0.70496
1.0765	-57.50427	-21.85364	-5.84106	18.53027	-6.3446
1.077	-52.06604	-19.33594	-0.90637	22.05505	-13.59558
1.0775	-48.84338	-17.72461	-10.97717	20.94727	-25.07629
1.078	-46.22498	-18.73169	-7.5531	28.50037	-36.4563
1.0785	-43.50586	-25.37842	-6.84814	27.09045	-36.85913
1.079	-44.81506	-18.02673	-0.40283	22.86072	-38.77258
1.0795	-47.8363	-15.40833	-5.74036	21.14868	-42.49878
1.08	-41.18958	-11.78284	-0.10071	23.76709	-42.49878
1.0805	-33.83789	-5.84106	-3.62549	29.40674	-52.16675
1.081	-20.04089	-2.01416	-7.25098	23.06213	-54.18091
1.0815	-13.797	-1.40991	4.22974	13.99841	-59.31702
1.082	-6.64673	-1.91345	-3.12195	14.40125	-52.46887
1.0825	-1.10779	0.70496	0.10071	14.60266	-49.85046
1.083	7.15027	5.33752	-2.92053	3.02124	-42.59949
1.0835	18.93311	-3.8269	-4.73328	3.32336	-44.91577
1.084	27.59399	0.50354	-0.40283	-3.42407	-26.68762
1.0845	27.59399	3.32336	-1.3092	-0.20142	-24.16992
1.085	39.67896	10.37292	-1.91345	-13.09204	-15.30762
1.0855	40.2832	12.89062	-0.90637	-18.93311	-12.78992
1.086	47.03064	4.73328	0.10071	-17.82532	-0.90637
1.0865	49.95117	8.56018	-0.20142	-16.81824	1.3092
1.087	55.79224	6.84814	0.80566	-20.1416	12.89062
1.0875	45.01648	8.15735	-1.51062	-22.76001	21.95435
1.088	48.13843	8.56018	-0.70496	-23.26355	23.76709
1.0885	43.20374	12.18567	4.83398	-26.68762	38.16833
1.089	34.94568	10.37292	4.53186	-20.84656	38.77258
1.0895	33.83789	6.44531	2.61841	-29.30603	43.00232
1.09	25.07629	4.53186	2.31628	-18.73169	43.90869
1.0905	18.42957	-1.81274	-0.60425	-23.06213	49.34692
1.091	13.59558	-3.22266	-2.92053	-17.42249	48.74268
1.0915	5.13611	3.02124	-2.5177	-13.89771	48.94409
1.092	-2.11487	-0.90637	-0.10071	-16.81824	43.00232
1.0925	-7.95593	3.02124	0.40283	-16.3147	40.78674
1.093	-13.09204	-4.12903	-0.50354	-11.98425	39.67896
1.0935	-23.16284	-5.13611	-4.43115	-0.50354	33.9386
1.094	-34.94568	-12.08496	-3.7262	3.32336	28.50037
1.0945	-33.13293	-14.90479	-3.32336	7.15027	20.44373
1.095	-33.13293	-18.63098	9.26514	14.09912	17.01965
1.0955	-39.67896	-16.01257	-0.70496	13.69629	8.96301
1.096	-46.32568	-15.91187	0.50354	17.01965	2.81982
1.0965	-43.80798	-20.64514	-3.92761	27.99683	-10.27222
1.097	-39.77966	-25.68054	-2.92053	19.33594	-13.797
1.0975	-46.22498	-18.93311	-0.60425	23.8678	-17.52319
1.098	-40.08179	-17.82532	-2.21558	15.81116	-29.10461
1.0985	-38.47046	-30.31311	-8.56018	20.34302	-31.72302
1.099	-40.88745	-25.27771	-0.10071	27.49329	-39.37683
1.0995	-32.93152	-19.94019	-10.57434	22.76001	-39.77966
1.1	-24.06921	-21.75293	-5.94177	20.64514	-42.59949
1.1005	-23.8678	-20.64514	-4.12903	19.33594	-50.45471
1.101	-23.66638	-19.23523	-2.61841	17.12036	-51.26038
1.1015	-18.12744	-1.51062	-3.8269	10.17151	-48.84338
1.102	-20.94727	0.50354	-2.61841	13.29346	-46.02356
1.1025	-17.32178	5.33752	3.42407	10.57434	-41.39099
1.103	-9.66797	8.96301	-0.90637	6.54602	-41.89453
1.1035	-3.12195	10.97717	-1.3092	2.71912	-38.47046
1.104	-1.10779	13.19275	3.32336	-4.33044	-27.59399
1.1045	19.43665	20.04089	-3.52478	-2.5177	-18.12744
1.105	32.32727	23.96851	0.60425	-16.11328	-18.53027
1.1055	39.17542	16.41541	8.7616	-12.78992	-11.38
1.106	47.63489	12.28638	-1.2085	-16.11328	-0.10071
1.1065	43.20374	18.42957	2.81982	-22.35718	10.17151
1.107	43.60657	21.95435	-1.00708	-21.85364	15.81116
1.1075	47.53418	17.6239	2.21558	-24.67346	20.74585
1.108	53.97949	15.81116	-0.60425	-29.30603	25.88196
1.1085	49.64905	11.48071	2.21558	-29.20532	31.82373
1.109	40.58533	7.5531	3.22266	-26.78833	38.06763
1.1095	41.69312	6.44531	2.31628	-24.16992	39.77966
1.11	29.91028	7.45239	-0.30212	-29.70886	44.11011
1.1105	30.71594	-3.7262	0.90637	-26.98975	44.0094
1.111	19.33594	-3.42407	-2.01416	-29.30603	44.91577
1.1115	9.76868	-9.36584	-4.63257	-22.6593	54.48303
1.112	8.7616	-10.27222	-0.70496	-18.53027	49.24622
1.1125	6.84814	-17.6239	-1.91345	-12.38708	50.45471
1.113	2.01416	-17.22107	-1.51062	-10.57434	47.8363
1.1135	-13.49487	-12.08496	-0.30212	-0.70496	35.85205
1.114	-26.68762	-16.11328	-5.33752	3.92761	31.32019
1.1145	-34.54285	-8.7616	-5.74036	3.7262	23.06213
1.115	-43.40515	-13.49487	-2.11487	12.5885	11.78284
1.1155	-50.75684	-21.85364	0.10071	13.39417	10.0708
1.116	-48.33984	-23.76709	-7.5531	19.63806	1.2085
1.1165	-50.05188	-20.1416	-4.12903	22.25647	-6.3446
1.117	-60.3241	-23.26355	0.90637	25.47913	-13.09204
1.1175	-67.8772	-10.77576	-5.23682	22.05505	-21.95435
1.118	-73.71826	-9.16443	-1.2085	25.98267	-36.05347
1.1185	-75.83313	-8.96301	-2.5177	27.89612	-39.37683
1.119	-72.50977	-8.25806	-3.42407	28.09753	-44.0094
1.1195	-62.64038	-6.74744	-0.60425	24.97559	-49.64905
1.12	-56.29578	-3.8269	-2.11487	28.29895	-53.37524
1.1205	-41.59241	3.92761	-5.33752	23.36426	-51.05896
1.121	-29.30603	1.10779	-2.5177	20.1416	-50.45471
1.1215	-12.18567	-0.60425	-9.97009	17.42249	-52.16675
1.122	-3.7262	0.20142	-1.3092	13.89771	-48.33984
1.1225	-0.10071	0.90637	0.50354	9.16443	-46.12427
1.123	1.51062	3.32336	1.2085	5.63965	-44.21082
1.1235	18.22815	6.54602	-2.61841	-7.85522	-32.12585
1.124	22.6593	4.93469	-0.70496	-4.53186	-25.88196
1.1245	31.11877	11.38	6.3446	-2.81982	-25.88196
1.125	36.4563	9.06372	0.50354	-9.86938	-16.81824
1.1255	47.33276	3.52478	2.11487	-12.38708	-9.66797
1.126	48.03772	11.68213	-0.60425	-17.12036	-2.71912
1.1265	52.46887	10.37292	-0.90637	-20.54443	9.06372
1.127	41.29028	13.29346	-1.2085	-26.28479	14.70337
1.1275	47.43347	11.58142	2.92053	-28.29895	23.36426
1.128	48.03772	10.47363	-2.81982	-27.49329	26.28479
1.1285	43.60657	8.15735	-1.71204	-27.39258	38.974
1.129	38.77258	2.81982	-6.2439	-24.97559	38.36975
1.1295	30.91736	1.51062	-2.11487	-23.06213	44.0094
1.13	34.54285	0	-8.15735	-25.27771	46.32568
1.1305	34.54285	-3.42407	-9.16443	-24.06921	52.46887
1.131	18.73169	-6.44531	2.11487	-24.57275	52.67029
1.1315	11.78284	-7.95593	-4.53186	-18.42957	51.86462
1.132	3.22266	-5.84106	-3.92761	-15.50903	49.34692
1.1325	2.01416	-9.26514	-3.52478	-5.43823	39.37683
1.133	4.02832	-13.29346	-4.02832	-11.98425	41.18958
1.1335	-13.59558	-13.797	-4.63257	-12.5885	34.34143
1.134	-13.49487	-17.32178	-3.32336	-0.40283	33.63647
1.1345	-17.6239	-19.13452	-8.56018	7.95593	25.88196
1.135	-38.06763	-23.46497	-5.33752	12.28638	13.99841
1.1355	-45.41931	-17.42249	-1.61133	7.15027	12.89062
1.136	-59.51843	-10.67505	-6.2439	10.0708	4.93469
1.1365	-67.57507	-15.91187	-7.04956	14.60266	-7.15027
1.137	-67.37366	-16.01257	-4.02832	19.23523	-11.68213
1.1375	-71.50269	-9.46655	-5.84106	19.94019	-19.83948
1.138	-74.62463	-8.15735	-2.71912	17.92603	-32.12585
1.1385	-63.24463	-7.5531	-2.21558	26.18408	-34.64355
1.139	-58.71277	-2.61841	-0.30212	15.81116	-40.68604
1.1395	-47.03064	-0.50354	-1.2085	17.12036	-39.27612
1.14	-44.51294	-6.04248	-0.40283	20.1416	-50.2533
1.1405	-41.18958	-3.8269	0.40283	12.78992	-56.09436
1.141	-28.19824	1.10779	8.56018	15.60974	-60.52551
1.1415	-18.02673	2.11487	8.66089	14.70337	-56.19507
1.142	-12.18567	6.74744	8.7616	13.797	-53.87878
1.1425	-9.66797	-3.42407	8.66089	8.7616	-45.11719
1.143	3.62549	6.14319	0.40283	2.5177	-45.2179
1.1435	14.19983	8.8623	-0.10071	-4.53186	-42.49878
1.144	19.83948	11.17859	1.81274	-5.53894	-36.15417
1.1445	29.91028	8.66089	-0.10071	-3.52478	-23.06213
1.145	38.974	16.81824	3.8269	-11.68213	-18.42957
1.1455	43.80798	12.89062	4.53186	-15.81116	-11.58142
1.146	49.44763	11.78284	1.3092	-20.24231	-1.91345
1.1465	47.43347	10.27222	2.31628	-15.40833	0.10071
1.147	47.53418	9.16443	-9.06372	-16.81824	14.80408
1.1475	45.72144	14.70337	2.11487	-30.11169	25.47913
1.148	44.91577	10.57434	7.15027	-26.48621	24.27063
1.1485	40.2832	15.91187	-1.10779	-23.26355	30.71594
1.149	42.90161	11.58142	4.63257	-22.05505	38.36975
1.1495	38.87329	10.47363	2.5177	-28.9032	34.24072
1.15	41.29028	9.56726	5.33752	-28.39966	43.90869
1.1505	24.47205	4.12903	5.84106	-23.66638	49.0448
1.151	16.91895	1.10779	-1.91345	-22.35718	51.66321
1.1515	-0.30212	-2.71912	-0.30212	-16.3147	50.65613
1.152	-4.12903	-6.74744	-3.62549	-11.98425	46.32568
1.1525	-17.32178	-2.5177	-0.70496	-12.99133	39.17542
1.153	-24.47205	-2.41699	-3.52478	-7.35168	39.37683
1.1535	-26.68762	-4.02832	-2.5177	-13.89771	36.15417
1.154	-31.52161	-14.80408	-2.71912	-4.12903	27.79541
1.1545	-37.66479	-15.00549	-3.02124	1.3092	25.78125
1.155	-47.13135	-15.81116	3.52478	6.04248	11.78284
1.1555	-51.86462	-15.40833	-0.70496	6.04248	2.71912
1.156	-50.15259	-18.12744	-1.51062	8.96301	-3.7262
1.1565	-58.91418	-19.33594	-5.0354	17.72461	-12.38708
1.157	-57.10144	-19.33594	4.22974	16.61682	-19.83948
1.1575	-57.70569	-17.12036	-1.00708	18.12744	-23.16284
1.158	-51.66321	-9.06372	-0.10071	19.33594	-29.00391
1.1585	-46.02356	-16.71753	-3.7262	16.61682	-33.63647
1.159	-36.95984	-17.01965	-4.63257	20.1416	-43.80798
1.1595	-36.4563	-5.53894	-1.71204	23.76709	-43.20374
1.16	-29.91028	-12.18567	7.25098	28.29895	-48.64197
1.1605	-19.33594	-10.57434	-2.81982	20.34302	-44.0094
