massimale_apertura.c3d



Time(s):	Emg_1(uV):	Emg_2(uV):	Emg_3(uV):	Emg_4(uV):	Emg_5(uV):
0	-2.5177	-4.12903	-6.74744	1.81274	27.6947
0.0005	-7.25098	-12.38708	-3.7262	-0.10071	30.81665
0.001	-8.7616	-9.36584	-1.71204	-0.90637	18.32886
0.0015	-23.06213	-14.30054	-8.96301	1.10779	17.82532
0.002	-22.96143	-14.90479	-1.91345	5.23682	21.45081
0.0025	-33.13293	-14.50195	-5.33752	-0.20142	19.94019
0.003	-35.14709	-11.17859	-0.10071	1.91345	15.30762
0.0035	-30.51453	-14.40125	-3.52478	-1.61133	9.97009
0.004	-43.00232	-21.55151	-5.84106	-0.10071	6.04248
0.0045	-37.7655	-17.12036	-0.10071	0.80566	2.71912
0.005	-38.36975	-8.66089	3.8269	0.10071	-0.30212
0.0055	-40.1825	-15.1062	2.71912	-4.12903	2.31628
0.006	-40.48462	-10.0708	9.36584	-3.92761	-6.14319
0.0065	-41.29028	-9.16443	8.96301	-1.40991	-13.49487
0.007	-36.35559	-6.74744	6.64673	-7.85522	-15.40833
0.0075	-32.42798	-11.88354	13.59558	-12.18567	-17.22107
0.008	-29.50745	-7.45239	12.99133	-4.22974	-11.17859
0.0085	-17.32178	-10.97717	9.26514	-1.51062	-12.08496
0.009	-15.71045	-2.92053	5.43823	-3.8269	-24.77417
0.0095	-9.36584	-2.21558	5.13611	-9.36584	-28.39966
0.01	-1.71204	3.7262	3.22266	-3.22266	-24.37134
0.0105	-1.61133	-0.10071	8.8623	-0.20142	-27.29187
0.011	3.22266	4.83398	6.54602	-0.20142	-19.13452
0.0115	11.38	4.33044	-4.73328	-1.51062	-23.36426
0.012	23.66638	8.35876	1.3092	-2.01416	-19.63806
0.0125	25.57983	7.85522	1.81274	-0.80566	-17.52319
0.013	22.25647	9.66797	3.02124	-5.94177	-20.74585
0.0135	27.79541	14.60266	3.92761	-7.85522	-20.44373
0.014	29.70886	15.60974	2.01416	-5.53894	-17.6239
0.0145	30.41382	10.57434	-1.10779	-6.84814	-6.74744
0.015	24.67346	7.04956	-2.11487	-6.74744	-3.42407
0.0155	29.00391	5.94177	-5.13611	-3.52478	0
0.016	32.93152	8.56018	-2.71912	-10.67505	-6.14319
0.0165	26.08337	8.35876	-2.61841	-7.75452	-0.80566
0.017	24.47205	7.25098	3.42407	-5.53894	9.16443
0.0175	20.64514	12.99133	-1.81274	-3.92761	9.46655
0.018	21.45081	7.04956	-5.63965	-3.12195	15.81116
0.0185	7.35168	-0.40283	2.31628	-1.61133	20.44373
0.019	-3.32336	-9.97009	-0.70496	1.81274	22.35718
0.0195	-4.53186	-4.12903	3.32336	-6.14319	24.16992
0.02	-6.14319	-13.99841	-1.51062	0.80566	18.73169
0.0205	-8.45947	-6.94885	-2.71912	-0.70496	19.33594
0.021	-12.38708	-10.47363	-2.71912	-2.31628	25.177
0.0215	-21.24939	-12.38708	-2.31628	1.3092	21.14868
0.022	-23.26355	-15.50903	2.11487	-5.43823	17.52319
0.0225	-41.89453	-14.09912	2.11487	3.8269	21.3501
0.023	-42.7002	-19.63806	0.30212	-3.02124	15.40833
0.0235	-46.42639	-13.99841	-2.01416	-3.42407	16.81824
0.024	-43.10303	-19.13452	0	-2.31628	11.07788
0.0245	-41.39099	-22.05505	-0.70496	-1.40991	6.04248
0.025	-34.64355	-17.72461	-2.81982	-1.3092	0.70496
0.0255	-27.79541	-20.74585	-4.12903	-8.56018	-5.84106
0.026	-27.59399	-17.92603	-0.90637	-3.7262	-8.25806
0.0265	-30.11169	-9.97009	-6.44531	-5.53894	-3.8269
0.027	-31.32019	-15.60974	-2.81982	-7.04956	-10.27222
0.0275	-26.68762	-12.08496	-9.46655	-0.80566	-11.2793
0.028	-20.74585	-5.84106	-11.78284	-6.64673	-19.23523
0.0285	-11.98425	-2.92053	-6.64673	-6.54602	-20.84656
0.029	-9.26514	-4.12903	-2.71912	-7.95593	-22.6593
0.0295	0.60425	-1.71204	-6.14319	-6.94885	-22.45789
0.03	8.66089	-5.0354	-3.32336	-9.16443	-18.22815
0.0305	10.77576	-1.91345	-2.01416	-8.66089	-18.93311
0.031	11.38	5.53894	-2.71912	-12.5885	-21.85364
0.0315	15.30762	6.54602	-3.52478	-10.0708	-23.36426
0.032	20.94727	10.77576	-3.02124	-7.95593	-21.14868
0.0325	24.67346	7.95593	-7.45239	-8.66089	-24.37134
0.033	29.40674	9.46655	-0.50354	-12.78992	-18.42957
0.0335	30.2124	18.12744	-4.83398	-18.12744	-12.99133
0.034	39.27612	8.96301	-0.90637	-13.797	-15.40833
0.0345	27.89612	14.60266	-1.3092	-17.32178	-8.25806
0.035	27.79541	9.36584	-3.52478	-10.57434	-4.73328
0.0355	30.01099	12.99133	-0.70496	-15.40833	1.40991
0.036	23.96851	11.58142	1.3092	-12.89062	4.22974
0.0365	20.04089	12.99133	-0.10071	-19.53735	8.56018
0.037	17.82532	11.2793	-2.31628	-11.98425	8.15735
0.0375	16.91895	7.65381	-0.10071	-15.91187	7.15027
0.038	12.78992	5.0354	-0.10071	-14.80408	10.57434
0.0385	10.0708	2.41699	0.10071	-17.82532	14.90479
0.039	-0.30212	-4.53186	6.94885	-7.5531	17.82532
0.0395	-5.94177	-3.8269	3.92761	-13.797	24.97559
0.04	-11.48071	-3.22266	0.40283	-9.56726	21.04797
0.0405	-16.91895	0.20142	-6.14319	-13.797	14.19983
0.041	-19.23523	-2.11487	-3.42407	-11.58142	19.13452
0.0415	-25.68054	-1.71204	-6.84814	-8.56018	20.04089
0.042	-37.06055	-1.61133	-0.10071	-11.2793	21.04797
0.0425	-39.47754	-10.0708	-1.10779	-10.47363	21.3501
0.043	-39.98108	-14.30054	0.50354	-0.90637	19.33594
0.0435	-40.78674	-12.99133	-4.53186	-9.66797	13.59558
0.044	-37.56409	-17.92603	-2.81982	-10.47363	9.46655
0.0445	-29.20532	-28.09753	-3.02124	-13.19275	4.53186
0.045	-24.16992	-30.91736	-6.14319	-9.66797	9.76868
0.0455	-25.27771	-26.98975	-2.21558	-10.27222	-1.2085
0.046	-24.47205	-21.55151	-4.12903	-10.37292	-0.30212
0.0465	-27.89612	-20.1416	-9.76868	-8.15735	-5.33752
0.047	-23.36426	-12.68921	-6.64673	-8.7616	-4.43115
0.0475	-25.07629	-15.81116	-0.70496	-9.16443	-11.78284
0.048	-22.05505	-15.00549	-8.35876	-3.32336	-16.3147
0.0485	-10.77576	-9.36584	-0.30212	-9.46655	-20.64514
0.049	-4.53186	-7.85522	-1.10779	-5.94177	-24.87488
0.0495	-0.20142	-5.94177	-3.12195	-8.56018	-21.85364
0.05	4.53186	-0.80566	1.91345	-8.96301	-26.28479
0.0505	10.67505	-3.62549	-5.13611	-6.44531	-23.8678
0.051	23.46497	-0.50354	-10.37292	-7.45239	-21.65222
0.0515	17.12036	2.5177	-3.52478	-11.58142	-23.66638
0.052	28.70178	6.04248	0.30212	-7.95593	-20.54443
0.0525	26.3855	7.65381	-6.3446	-16.71753	-22.96143
0.053	31.72302	16.71753	-0.50354	-12.38708	-15.40833
0.0535	38.47046	10.57434	-1.61133	-9.56726	-14.09912
0.054	31.52161	8.7616	-3.7262	-19.23523	-9.86938
0.0545	27.89612	11.58142	4.12903	-19.73877	-4.12903
0.055	28.29895	7.25098	-0.10071	-13.49487	-9.46655
0.0555	26.28479	9.26514	5.53894	-9.16443	-4.73328
0.056	24.87488	8.25806	0.90637	-11.98425	2.61841
0.0565	23.26355	7.15027	-4.63257	-10.17151	8.15735
0.057	21.55151	5.53894	-0.90637	-12.78992	9.76868
0.0575	18.02673	11.38	-2.11487	-9.36584	13.797
0.058	11.78284	10.57434	-0.20142	-12.48779	19.33594
0.0585	2.5177	6.44531	0.10071	-13.09204	21.24939
0.059	0.60425	0.60425	-4.93469	-17.12036	13.39417
0.0595	-10.47363	5.33752	-5.33752	-13.19275	19.03381
0.06	-4.93469	-0.90637	-4.73328	-10.77576	15.00549
0.0605	-12.08496	-0.70496	-4.73328	-11.98425	17.12036
0.061	-16.81824	-5.63965	-4.33044	-12.18567	18.42957
0.0615	-27.29187	-8.15735	-6.04248	-11.78284	18.93311
0.062	-24.27063	-14.09912	-10.27222	-3.7262	26.48621
0.0625	-35.2478	-12.68921	-0.60425	-5.53894	22.55859
0.063	-39.77966	-9.26514	-3.7262	-2.31628	17.22107
0.0635	-42.7002	-12.48779	-8.45947	-6.2439	5.13611
0.064	-43.10303	-18.42957	-3.7262	2.92053	4.43115
0.0645	-42.09595	-22.86072	-1.81274	-7.95593	11.98425
0.065	-37.96692	-21.75293	-0.30212	-3.02124	2.81982
0.0655	-39.98108	-16.81824	-2.21558	-5.23682	-0.30212
0.066	-34.94568	-19.03381	-1.81274	-0.50354	-2.92053
0.0665	-32.83081	-12.89062	3.62549	-2.31628	-4.93469
0.067	-34.24072	-12.18567	-0.30212	-0.10071	-10.57434
0.0675	-30.2124	-10.0708	-0.70496	-1.81274	-18.22815
0.068	-21.65222	-2.11487	-8.35876	1.10779	-17.01965
0.0685	-12.78992	-5.33752	-0.50354	-5.43823	-21.24939
0.069	-13.797	-4.93469	-4.33044	-1.51062	-24.57275
0.0695	-6.64673	-5.84106	-1.71204	1.10779	-23.06213
0.07	2.92053	1.2085	-3.52478	-7.04956	-20.64514
0.0705	4.02832	8.56018	-1.81274	-4.12903	-26.68762
0.071	7.15027	-4.93469	-4.73328	-9.66797	-20.54443
0.0715	11.58142	4.33044	-3.8269	-8.05664	-27.19116
0.072	12.28638	9.86938	2.61841	-4.12903	-26.88904
0.0725	23.46497	11.48071	0.90637	-8.35876	-16.21399
0.073	26.68762	8.35876	3.62549	-6.54602	-17.42249
0.0735	34.94568	15.30762	1.81274	-7.5531	-13.09204
0.074	35.44922	8.8623	3.7262	-9.36584	-7.75452
0.0745	28.19824	7.5531	3.22266	-9.97009	-0.10071
0.075	34.14001	8.66089	6.94885	-1.51062	-5.94177
0.0755	27.19116	7.65381	3.8269	-2.61841	0.20142
0.076	30.11169	13.19275	2.31628	-3.7262	-2.41699
0.0765	28.80249	8.56018	-5.63965	-2.01416	-0.90637
0.077	24.57275	2.81982	3.42407	1.3092	4.33044
0.0775	25.177	4.93469	3.22266	-4.02832	6.54602
0.078	17.01965	3.92761	0.40283	-9.97009	9.97009
0.0785	9.36584	-2.5177	0.30212	-5.13611	22.96143
0.079	-0.30212	-5.13611	6.14319	-1.51062	25.88196
0.0795	-4.12903	-6.44531	-0.10071	1.00708	20.74585
0.08	-7.5531	-2.92053	2.11487	-5.94177	28.09753
0.0805	-8.56018	-5.74036	0.70496	-2.41699	22.55859
0.081	-7.95593	-10.67505	0.50354	-1.10779	17.42249
0.0815	-24.16992	-13.89771	-0.90637	6.54602	21.95435
0.082	-21.75293	-17.72461	-4.02832	2.11487	21.45081
0.0825	-34.03931	-22.96143	-0.50354	-0.30212	17.42249
0.083	-37.96692	-13.59558	-0.60425	-0.80566	25.57983
0.0835	-38.26904	-17.42249	-10.17151	-2.31628	15.60974
0.084	-35.75134	-12.18567	-5.94177	2.71912	15.20691
0.0845	-34.94568	-18.8324	-5.63965	2.01416	13.39417
0.085	-39.57825	-17.01965	-2.11487	-4.33044	-4.22974
0.0855	-33.9386	-18.02673	0.80566	-4.33044	0.50354
0.086	-32.42798	-15.40833	-4.93469	-2.92053	-1.2085
0.0865	-36.35559	-22.45789	-3.52478	1.81274	-7.35168
0.087	-34.84497	-9.97009	4.63257	-6.2439	-10.87646
0.0875	-30.2124	-13.59558	-1.61133	0.30212	-14.09912
0.088	-23.06213	-10.97717	2.92053	-1.81274	-20.64514
0.0885	-19.33594	-6.04248	3.02124	-0.70496	-18.53027
0.089	-14.09912	0.90637	-1.91345	-4.53186	-21.65222
0.0895	-7.95593	-1.81274	1.61133	-1.40991	-23.46497
0.09	3.32336	3.7262	0.10071	-2.11487	-19.63806
0.0905	10.97717	-2.41699	0.70496	-5.94177	-20.44373
0.091	10.97717	0.60425	5.33752	-4.53186	-19.94019
0.0915	20.44373	3.92761	-3.22266	-4.33044	-21.55151
0.092	21.65222	9.66797	-4.12903	-4.83398	-27.09045
0.0925	28.09753	10.97717	1.00708	-4.53186	-27.19116
0.093	35.65063	7.35168	-9.26514	-6.14319	-15.60974
0.0935	37.46338	9.36584	3.42407	-2.92053	-16.21399
0.094	35.95276	14.70337	3.92761	-4.33044	-12.5885
0.0945	27.89612	13.99841	1.81274	-3.02124	-7.75452
0.095	31.92444	9.46655	1.00708	1.2085	-10.17151
0.0955	31.21948	13.39417	-3.7262	-6.2439	-4.12903
0.096	23.56567	4.63257	0.90637	-3.7262	-1.10779
0.0965	27.39258	7.95593	2.41699	-2.61841	5.13611
0.097	24.67346	8.25806	-0.90637	-4.02832	6.94885
0.0975	21.45081	4.53186	-3.92761	-7.15027	10.47363
0.098	19.83948	8.35876	-6.94885	-8.56018	12.18567
0.0985	11.07788	4.93469	-0.70496	-14.09912	17.32178
0.099	0.20142	0.90637	-3.92761	-0.50354	14.19983
0.0995	-1.51062	-4.43115	-4.12903	-1.10779	15.81116
0.1	-5.84106	-4.83398	-4.12903	-4.73328	16.81824
0.1005	-15.20691	-0.10071	-1.61133	-5.13611	13.19275
0.101	-18.63098	-6.14319	-3.22266	0.50354	16.61682
0.1015	-17.6239	-8.96301	-6.74744	-4.53186	18.02673
0.102	-24.47205	-11.17859	-3.8269	-4.83398	21.04797
0.1025	-35.34851	-12.68921	-10.27222	-3.02124	19.53735
0.103	-32.83081	-24.16992	-7.15027	0	16.51611
0.1035	-40.1825	-16.3147	-3.02124	2.11487	10.77576
0.104	-39.47754	-18.02673	-0.30212	3.92761	7.04956
0.1045	-38.77258	-13.49487	-4.83398	-0.30212	5.53894
0.105	-36.35559	-18.42957	-5.74036	-2.01416	-0.10071
0.1055	-33.33435	-14.40125	-3.8269	-0.50354	-1.40991
0.106	-33.03223	-12.48779	-0.10071	-4.83398	-4.53186
0.1065	-33.83789	-15.40833	-4.73328	-4.12903	-5.53894
0.107	-29.30603	-12.68921	-2.92053	0.90637	-5.74036
0.1075	-23.16284	-16.61682	-9.66797	-4.43115	-8.35876
0.108	-25.88196	-5.33752	1.00708	-6.64673	-15.40833
0.1085	-12.89062	-0.50354	-4.43115	1.40991	-16.71753
0.109	-11.68213	1.3092	-1.91345	-1.10779	-23.36426
0.1095	-2.31628	3.52478	-0.70496	-5.84106	-21.95435
0.11	2.61841	-1.00708	-2.41699	-0.10071	-28.09753
0.1105	7.95593	4.63257	2.71912	-4.53186	-26.78833
0.111	2.92053	5.53894	-0.10071	-4.12903	-25.07629
0.1115	14.30054	9.66797	-3.52478	-1.91345	-21.24939
0.112	23.56567	10.97717	-9.66797	1.40991	-22.76001
0.1125	24.37134	13.59558	-0.40283	-1.10779	-18.8324
0.113	26.18408	15.60974	0.60425	-7.15027	-17.22107
0.1135	35.54993	12.28638	5.53894	-7.45239	-20.24231
0.114	24.06921	14.19983	1.91345	-3.52478	-14.90479
0.1145	34.03931	12.5885	-1.40991	-5.63965	-10.97717
0.115	26.68762	13.797	0.80566	-1.3092	-7.45239
0.1155	29.00391	10.57434	3.62549	-1.71204	-4.33044
0.116	26.58691	7.75452	-1.91345	-7.15027	-1.91345
0.1165	24.27063	12.99133	-1.40991	-1.3092	0.70496
0.117	22.76001	5.23682	-4.12903	-0.70496	3.7262
0.1175	18.63098	1.2085	-2.11487	2.21558	9.76868
0.118	16.61682	3.92761	-3.02124	-5.74036	17.42249
0.1185	9.66797	1.71204	-3.32336	-7.25098	16.11328
0.119	4.22974	-4.22974	-6.14319	-1.51062	18.22815
0.1195	1.10779	-6.3446	-1.00708	-0.10071	21.04797
0.12	-0.80566	-10.87646	-5.33752	-0.70496	15.30762
0.1205	-10.0708	-18.12744	-6.94885	-0.10071	23.76709
0.121	-9.97009	-14.70337	-3.12195	3.32336	19.33594
0.1215	-9.36584	-19.63806	-3.32336	6.04248	18.53027
0.122	-22.05505	-18.73169	-5.84106	2.11487	17.82532
0.1225	-28.80249	-21.24939	-8.05664	2.41699	17.42249
0.123	-28.09753	-22.35718	-7.5531	7.25098	18.12744
0.1235	-34.54285	-19.33594	-7.45239	7.15027	17.22107
0.124	-36.35559	-19.03381	-5.84106	5.74036	11.58142
0.1245	-32.22656	-20.74585	-6.54602	1.71204	6.84814
0.125	-31.32019	-14.40125	-9.56726	-0.80566	0.60425
0.1255	-34.74426	-18.42957	-3.7262	0.20142	0.50354
0.126	-35.65063	-19.23523	-11.78284	4.53186	0.40283
0.1265	-36.55701	-9.97009	-9.97009	11.07788	-2.81982
0.127	-31.72302	-15.00549	-7.5531	2.81982	-4.33044
0.1275	-25.68054	-10.17151	-2.21558	-0.50354	-8.25806
0.128	-16.81824	-5.43823	0.20142	-1.51062	-20.64514
0.1285	-16.01257	-2.61841	1.40991	-5.63965	-19.33594
0.129	-12.48779	9.76868	4.53186	-4.53186	-26.08337
0.1295	-10.57434	7.45239	1.61133	-6.54602	-28.29895
0.13	-1.2085	9.16443	4.33044	-5.94177	-22.25647
0.1305	3.8269	5.84106	1.51062	-4.53186	-25.07629
0.131	6.14319	4.53186	2.92053	-3.02124	-24.57275
0.1315	9.66797	5.74036	4.12903	-2.21558	-26.48621
0.132	15.30762	17.42249	4.93469	-1.51062	-21.85364
0.1325	19.53735	23.06213	4.33044	-1.2085	-25.57983
0.133	25.177	17.42249	4.02832	-2.92053	-24.77417
0.1335	29.91028	21.3501	2.5177	-6.74744	-18.63098
0.134	29.10461	13.39417	6.14319	1.3092	-19.63806
0.1345	24.87488	14.80408	7.15027	-1.3092	-9.06372
0.135	25.27771	10.77576	8.05664	2.31628	-7.35168
0.1355	25.27771	12.48779	5.0354	0	-1.91345
0.136	23.56567	7.15027	-4.83398	-1.61133	0.30212
0.1365	24.67346	6.54602	1.91345	-5.13611	6.74744
0.137	28.70178	2.71912	1.61133	-3.92761	13.99841
0.1375	19.23523	4.22974	-5.94177	1.71204	5.63965
0.138	15.60974	-0.10071	1.40991	-1.91345	17.42249
0.1385	7.04956	-2.5177	0	2.61841	13.49487
0.139	1.40991	-4.43115	-5.63965	1.91345	18.12744
0.1395	-1.61133	1.3092	1.61133	4.12903	12.78992
0.14	-4.33044	-5.94177	-3.7262	3.32336	21.24939
0.1405	-13.39417	-12.68921	-1.91345	4.33044	26.48621
0.141	-17.92603	-15.60974	-8.7616	-1.2085	23.66638
0.1415	-21.24939	-13.99841	-4.43115	6.54602	20.44373
0.142	-24.57275	-18.8324	-0.40283	3.92761	25.27771
0.1425	-32.62939	-23.66638	-6.84814	-0.70496	26.08337
0.143	-36.75842	-21.45081	-2.11487	2.81982	22.25647
0.1435	-35.75134	-15.91187	-7.15027	5.74036	18.32886
0.144	-35.95276	-15.91187	-1.51062	2.41699	8.45947
0.1445	-41.39099	-16.41541	-7.65381	-1.10779	7.75452
0.145	-41.4917	-15.81116	-6.84814	4.02832	0.40283
0.1455	-37.66479	-12.89062	-0.90637	2.31628	-0.50354
0.146	-35.14709	-20.44373	-5.0354	2.11487	-3.12195
0.1465	-34.74426	-8.8623	-10.57434	1.40991	-4.73328
0.147	-30.51453	-14.40125	-4.12903	0.40283	-9.97009
0.1475	-26.3855	-9.06372	-0.80566	3.7262	-11.98425
0.148	-23.26355	-4.12903	-2.11487	5.63965	-14.30054
0.1485	-22.86072	-1.91345	0.20142	-3.12195	-17.01965
0.149	-1.40991	-2.71912	4.53186	-4.33044	-22.15576
0.1495	-4.33044	2.61841	1.91345	-2.21558	-25.27771
0.15	-1.51062	2.61841	-0.70496	-2.71912	-26.78833
0.1505	9.16443	4.12903	1.2085	0.10071	-23.46497
0.151	9.36584	5.74036	0.10071	2.11487	-21.14868
0.1515	9.46655	5.74036	-2.31628	0.90637	-20.84656
0.152	17.6239	3.32336	-5.0354	-2.5177	-23.26355
0.1525	25.07629	10.67505	2.71912	-0.70496	-21.24939
0.153	33.9386	11.38	-1.51062	-3.22266	-19.23523
0.1535	33.9386	15.91187	-4.93469	-5.13611	-17.52319
0.154	28.09753	17.72461	-2.81982	-4.53186	-13.09204
0.1545	33.33435	19.33594	4.93469	-6.04248	-7.15027
0.155	28.39966	14.80408	-2.41699	-6.84814	-12.38708
0.1555	27.59399	15.71045	2.31628	-3.32336	-1.40991
0.156	17.72461	12.89062	-0.40283	-2.92053	0.90637
0.1565	16.41541	13.59558	2.5177	4.12903	4.33044
0.157	16.91895	15.30762	5.23682	3.42407	4.12903
0.1575	11.88354	7.45239	-0.50354	-2.81982	10.37292
0.158	4.53186	7.75452	4.33044	5.94177	9.76868
0.1585	-0.10071	1.2085	2.92053	4.63257	13.39417
0.159	-3.8269	-3.8269	-0.80566	5.33752	19.03381
0.1595	-6.64673	-2.61841	-5.33752	2.31628	19.43665
0.16	-8.96301	-6.64673	3.92761	1.00708	19.43665
0.1605	-3.02124	-18.02673	-4.93469	1.3092	23.26355
0.161	-7.5531	-21.65222	-3.22266	4.22974	25.57983
0.1615	-14.90479	-21.85364	-13.19275	10.37292	24.27063
0.162	-20.44373	-18.32886	-7.75452	7.5531	16.51611
0.1625	-27.6947	-19.83948	-7.75452	6.3446	17.32178
0.163	-44.41223	-22.15576	-3.52478	10.67505	15.20691
0.1635	-36.75842	-21.85364	-4.63257	11.68213	8.7616
0.164	-33.83789	-21.85364	-9.16443	13.29346	5.53894
0.1645	-28.29895	-20.74585	-7.15027	17.92603	-0.30212
0.165	-38.47046	-18.12744	-7.35168	13.19275	0.50354
0.1655	-37.7655	-21.55151	-4.93469	11.78284	-1.91345
0.166	-36.85913	-17.32178	-2.5177	15.81116	-9.36584
0.1665	-30.61523	-19.73877	-3.8269	16.41541	-7.65381
0.167	-33.03223	-11.78284	5.53894	19.03381	-12.18567
0.1675	-28.9032	-11.58142	-1.81274	14.60266	-6.84814
0.168	-17.52319	-9.06372	1.81274	17.12036	-11.78284
0.1685	-15.00549	-3.22266	-6.94885	12.18567	-20.84656
0.169	-4.12903	-3.32336	-6.64673	21.24939	-21.24939
0.1695	-2.21558	-6.3446	0.10071	14.50195	-25.57983
0.17	-0.40283	1.2085	-2.31628	19.94019	-26.48621
0.1705	4.93469	3.52478	-1.71204	14.19983	-22.25647
0.171	7.75452	2.41699	0.10071	13.19275	-22.35718
0.1715	10.77576	12.18567	0.90637	18.8324	-21.95435
0.172	18.42957	16.21399	3.8269	10.27222	-19.03381
0.1725	28.19824	22.25647	4.12903	19.53735	-19.23523
0.173	24.97559	14.09912	8.05664	17.92603	-13.59558
0.1735	31.52161	12.99133	10.0708	17.52319	-15.60974
0.174	30.91736	15.50903	8.15735	20.34302	-13.29346
0.1745	30.2124	13.99841	2.81982	19.83948	-12.78992
0.175	30.91736	10.77576	-5.53894	9.16443	-4.53186
0.1755	28.60107	10.57434	-0.30212	16.11328	-1.10779
0.176	27.59399	9.66797	-0.10071	19.63806	0.10071
0.1765	28.70178	11.78284	0.40283	15.50903	3.52478
0.177	22.15576	10.87646	0.40283	14.09912	7.15027
0.1775	19.73877	8.56018	0.40283	20.24231	5.63965
0.178	9.66797	5.23682	0.40283	14.50195	10.27222
0.1785	13.59558	-2.21558	0.40283	17.52319	12.5885
0.179	-2.5177	-8.25806	0.40283	18.22815	21.65222
0.1795	-3.7262	-7.75452	0.40283	19.53735	21.65222
0.18	-11.58142	-6.74744	0.40283	20.24231	14.90479
0.1805	-9.26514	-11.48071	0.40283	20.64514	22.55859
0.181	-15.00549	-12.08496	0.40283	19.43665	23.26355
0.1815	-20.54443	-21.45081	0.40283	20.34302	17.82532
0.182	-20.84656	-16.71753	0.40283	21.85364	25.78125
0.1825	-34.84497	-26.08337	0.40283	18.63098	18.53027
0.183	-40.48462	-25.88196	0.40283	23.06213	21.04797
0.1835	-39.47754	-22.55859	0.40283	21.75293	11.88354
0.184	-42.19666	-24.67346	-7.5531	16.3147	9.06372
0.1845	-36.75842	-22.45789	-7.5531	21.14868	1.81274
0.185	-39.37683	-19.23523	-4.12903	19.43665	0.50354
0.1855	-31.62231	-23.46497	-13.29346	12.89062	-0.40283
0.186	-26.28479	-11.68213	-2.31628	13.69629	-6.74744
0.1865	-31.92444	-10.77576	-6.94885	15.00549	-5.63965
0.187	-30.51453	-9.46655	-7.45239	16.81824	-10.27222
0.1875	-25.57983	-7.5531	-6.3446	12.99133	-8.7616
0.188	-18.22815	2.11487	-4.83398	22.15576	-17.22107
0.1885	-14.80408	-1.2085	-2.31628	15.00549	-19.33594
0.189	-11.98425	-0.30212	-3.52478	17.42249	-23.26355
0.1895	-8.25806	2.61841	-7.95593	16.3147	-19.23523
0.19	4.93469	3.62549	-7.85522	6.84814	-26.08337
0.1905	9.36584	4.93469	-0.50354	11.2793	-26.18408
0.191	10.97717	7.35168	2.31628	13.09204	-23.26355
0.1915	14.19983	7.75452	10.17151	7.5531	-24.16992
0.192	18.53027	14.70337	5.13611	11.58142	-25.78125
0.1925	26.08337	19.73877	6.74744	10.17151	-22.25647
0.193	29.10461	15.60974	2.11487	16.21399	-20.1416
0.1935	28.80249	13.797	0	9.86938	-14.80408
0.194	29.50745	17.42249	1.10779	13.19275	-15.40833
0.1945	28.60107	16.81824	6.74744	9.26514	-11.48071
0.195	30.01099	15.50903	7.35168	14.30054	-5.94177
0.1955	30.91736	10.97717	2.11487	8.56018	-0.80566
0.196	34.34143	6.94885	3.32336	9.66797	-0.80566
0.1965	26.58691	15.71045	2.71912	7.45239	5.63965
0.197	19.83948	13.49487	1.61133	2.92053	5.33752
0.1975	17.01965	8.7616	2.41699	8.56018	9.66797
0.198	8.15735	7.5531	-1.71204	8.8623	12.28638
0.1985	3.7262	-2.11487	7.04956	9.36584	16.61682
0.199	0.80566	-2.71912	2.61841	8.35876	19.33594
0.1995	-4.83398	2.01416	-0.10071	5.23682	16.81824
0.2	-4.73328	-5.23682	1.40991	5.13611	25.27771
0.2005	-15.30762	-13.69629	-3.12195	14.90479	27.19116
0.201	-19.94019	-8.56018	-2.5177	12.18567	19.73877
0.2015	-25.98267	-13.09204	-5.53894	6.94885	15.00549
0.202	-30.51453	-20.64514	-2.81982	11.78284	25.68054
0.2025	-39.67896	-16.71753	-4.12903	11.78284	17.42249
0.203	-40.1825	-17.12036	-8.7616	11.78284	16.21399
0.2035	-36.75842	-14.50195	-1.10779	12.99133	9.86938
0.204	-37.96692	-20.34302	-2.21558	6.84814	8.05664
0.2045	-37.96692	-15.71045	-3.7262	13.09204	2.71912
0.205	-36.75842	-15.50903	-2.81982	12.28638	4.43115
0.2055	-34.94568	-20.84656	-2.11487	18.32886	-1.51062
0.206	-37.26196	-20.64514	0.10071	13.69629	-2.92053
0.2065	-40.98816	-21.24939	1.10779	18.02673	-5.33752
0.207	-36.85913	-14.09912	-6.74744	7.35168	-6.04248
0.2075	-25.98267	-13.39417	-2.31628	2.5177	-10.57434
0.208	-20.44373	-9.97009	-3.92761	10.47363	-18.22815
0.2085	-9.56726	-10.97717	-3.32336	9.06372	-19.23523
0.209	-2.21558	-4.12903	-2.31628	7.04956	-22.25647
0.2095	-1.91345	-3.62549	1.3092	6.94885	-21.65222
0.21	10.37292	-2.11487	-1.71204	8.66089	-17.6239
0.2105	6.14319	0.90637	-7.15027	1.71204	-15.71045
0.211	6.44531	4.53186	0.90637	2.61841	-21.14868
0.2115	19.23523	6.94885	-8.96301	0.40283	-24.16992
0.212	23.06213	12.28638	-6.54602	-0.10071	-22.6593
0.2125	25.27771	10.67505	-3.62549	3.22266	-23.8678
0.213	34.54285	9.86938	-4.53186	-4.33044	-19.33594
0.2135	31.32019	19.03381	-4.12903	2.31628	-17.12036
0.214	35.54993	17.22107	-4.12903	4.53186	-14.60266
0.2145	32.62939	10.77576	2.01416	-1.40991	-7.04956
0.215	31.11877	15.71045	2.31628	4.73328	-5.13611
0.2155	34.94568	9.86938	-2.5177	2.31628	-0.90637
0.216	25.47913	10.57434	0.10071	-2.5177	5.23682
0.2165	26.88904	8.8623	-2.5177	6.54602	-0.60425
0.217	28.50037	11.78284	-4.63257	3.32336	7.04956
0.2175	21.14868	10.57434	-2.92053	0.20142	9.86938
0.218	19.53735	5.74036	-1.91345	-5.43823	17.32178
0.2185	6.14319	2.71912	-4.53186	2.5177	18.93311
0.219	8.25806	-3.52478	-6.74744	0.90637	17.12036
0.2195	-2.61841	-6.54602	-4.33044	3.8269	19.63806
0.22	-2.61841	-11.17859	-2.11487	3.22266	10.47363
0.2205	-10.0708	-7.65381	-1.2085	6.74744	20.84656
0.221	-9.36584	-7.65381	-8.7616	4.73328	19.13452
0.2215	-20.94727	-8.15735	-3.8269	4.33044	17.42249
0.222	-26.78833	-12.89062	-1.71204	4.93469	18.22815
0.2225	-32.22656	-12.18567	-4.02832	0.30212	21.45081
0.223	-33.33435	-14.70337	-5.33752	4.43115	15.71045
0.2235	-41.18958	-13.39417	-6.3446	9.36584	13.09204
0.224	-37.66479	-16.01257	-2.21558	-0.10071	10.37292
0.2245	-34.84497	-18.42957	6.94885	5.94177	5.0354
0.225	-35.95276	-13.69629	-0.80566	3.52478	4.93469
0.2255	-36.35559	-13.797	-5.53894	4.83398	8.25806
0.226	-36.25488	-19.73877	-0.60425	4.33044	3.92761
0.2265	-33.13293	-20.64514	-0.90637	8.56018	-4.73328
0.227	-25.07629	-22.76001	-3.02124	6.94885	-7.65381
0.2275	-27.29187	-20.24231	-2.31628	2.41699	-6.54602
0.228	-19.03381	-12.48779	2.71912	2.71912	-9.76868
0.2285	-11.58142	-5.13611	1.3092	8.96301	-21.75293
0.229	-6.94885	-4.12903	-5.13611	2.71912	-18.22815
0.2295	-4.33044	-3.8269	-5.33752	3.32336	-16.41541
0.23	1.00708	-3.8269	-2.71912	7.45239	-22.86072
0.2305	1.81274	9.97009	-3.92761	-1.81274	-26.18408
0.231	14.19983	-0.90637	-2.61841	8.7616	-30.11169
0.2315	13.49487	2.31628	-8.66089	1.51062	-22.25647
0.232	15.40833	4.73328	-4.22974	-3.7262	-22.25647
0.2325	25.88196	13.29346	-2.5177	5.33752	-22.86072
0.233	34.03931	5.94177	-0.30212	1.51062	-13.59558
0.2335	33.13293	11.2793	-5.53894	1.71204	-10.17151
0.234	35.34851	12.89062	0.50354	-7.65381	-9.86938
0.2345	30.91736	14.70337	-4.83398	-2.11487	-4.12903
0.235	36.15417	14.19983	-2.92053	-10.77576	-3.7262
0.2355	33.53577	12.89062	-3.22266	-4.12903	2.01416
0.236	28.80249	9.56726	-0.70496	0.70496	3.7262
0.2365	27.59399	21.75293	-4.63257	-9.76868	6.74744
0.237	28.50037	10.77576	1.3092	-3.7262	1.40991
0.2375	28.09753	10.47363	-1.10779	-1.3092	5.53894
0.238	16.91895	1.3092	-3.52478	-5.74036	15.20691
0.2385	12.28638	-0.90637	-5.13611	-1.3092	12.99133
0.239	3.92761	-0.90637	-6.84814	-1.40991	20.1416
0.2395	-6.44531	-4.12903	-5.63965	-2.71912	21.3501
0.24	-8.05664	-3.7262	-5.63965	5.74036	19.63806
0.2405	-15.1062	-9.36584	-5.63965	-0.10071	17.6239
0.241	-16.01257	-3.52478	-5.63965	8.45947	20.84656
0.2415	-25.68054	-14.30054	-5.63965	5.94177	20.54443
0.242	-31.72302	-13.797	-5.63965	2.61841	25.27771
0.2425	-31.11877	-14.60266	-5.63965	2.11487	22.15576
0.243	-41.69312	-15.20691	-5.63965	2.01416	18.22815
0.2435	-40.88745	-5.13611	-5.63965	3.22266	14.90479
0.244	-34.74426	-7.85522	-5.63965	3.22266	8.15735
0.2445	-46.32568	-8.7616	-5.63965	0.60425	-0.70496
0.245	-49.85046	-6.74744	-5.63965	-1.10779	-1.61133
0.2455	-38.77258	-11.78284	-5.63965	2.11487	-1.71204
0.246	-40.2832	-19.13452	-5.63965	-0.10071	-11.48071
0.2465	-43.70728	-11.58142	-5.63965	-2.71912	-14.40125
0.247	-29.91028	-10.87646	4.53186	-3.12195	-18.63098
0.2475	-32.52869	-14.19983	4.12903	-0.50354	-18.22815
0.248	-22.15576	-7.85522	0.60425	1.51062	-23.56567
0.2485	-15.20691	-4.33044	2.5177	-5.43823	-23.8678
0.249	-9.16443	-5.0354	-2.81982	-5.53894	-27.09045
0.2495	-2.31628	-3.52478	-3.92761	-6.74744	-19.33594
0.25	-4.12903	0.90637	-0.90637	0.30212	-24.37134
0.2505	1.10779	6.64673	2.71912	-3.12195	-22.76001
0.251	2.61841	8.15735	6.14319	-2.61841	-26.68762
0.2515	5.13611	10.17151	3.8269	-0.70496	-24.97559
0.252	14.19983	14.90479	9.76868	-2.5177	-23.46497
0.2525	21.65222	11.17859	0.10071	-7.04956	-22.45789
0.253	23.56567	9.76868	-0.60425	-2.92053	-19.53735
0.2535	32.42798	15.20691	-1.51062	-7.5531	-15.71045
0.254	31.92444	16.81824	-0.70496	-11.98425	-18.8324
0.2545	25.37842	13.09204	-3.92761	-7.45239	-11.2793
0.255	24.57275	16.91895	-1.00708	-6.44531	-10.37292
0.2555	27.09045	9.66797	1.61133	-6.74744	-4.53186
0.256	30.61523	14.50195	1.61133	-4.43115	2.71912
0.2565	30.31311	4.12903	-2.92053	-12.78992	2.11487
0.257	27.09045	9.36584	0.70496	-6.84814	4.22974
0.2575	25.78125	-5.74036	0.90637	-1.81274	10.97717
0.258	17.01965	2.71912	-1.2085	-0.30212	13.99841
0.2585	11.68213	2.21558	-3.42407	0.20142	18.42957
0.259	0.80566	-1.71204	-1.2085	-2.5177	12.89062
0.2595	-4.53186	-5.23682	0.70496	-4.33044	19.83948
0.26	-5.53894	-1.91345	9.36584	-4.02832	20.34302
0.2605	-9.46655	-3.92761	-4.33044	-1.2085	23.36426
0.261	-11.98425	-9.16443	-4.33044	2.5177	23.66638
0.2615	-15.60974	-12.5885	-2.01416	-1.81274	16.71753
0.262	-24.06921	-11.07788	1.00708	5.74036	17.12036
0.2625	-31.82373	-15.60974	-1.91345	-2.01416	17.12036
0.263	-32.93152	-18.22815	-3.12195	-0.10071	16.71753
0.2635	-42.7002	-21.65222	0	2.01416	16.11328
0.264	-41.18958	-19.03381	-0.90637	-1.71204	5.74036
0.2645	-37.16125	-14.90479	-2.71912	-0.10071	0.80566
0.265	-36.55701	-11.78284	-8.56018	3.92761	-1.2085
0.2655	-39.37683	-16.81824	-9.36584	-3.62549	-2.31628
0.266	-35.95276	-18.8324	-1.51062	0	-4.53186
0.2665	-37.56409	-17.6239	-2.21558	-3.8269	0.50354
0.267	-29.91028	-12.78992	-4.12903	0.50354	-7.5531
0.2675	-26.68762	-9.06372	-7.35168	-3.12195	-7.75452
0.268	-25.27771	-8.96301	-7.35168	4.93469	-15.40833
0.2685	-16.11328	-2.01416	-7.35168	0.30212	-17.22107
0.269	-14.09912	-2.01416	-7.35168	-0.30212	-23.36426
0.2695	-13.59558	1.10779	-7.35168	2.61841	-22.25647
0.27	-6.2439	6.54602	-7.35168	1.3092	-25.47913
0.2705	5.94177	3.92761	-7.35168	-1.10779	-22.86072
0.271	3.92761	8.7616	-7.35168	-3.32336	-24.06921
0.2715	14.50195	8.25806	-7.35168	4.33044	-22.25647
0.272	24.27063	-0.10071	-7.35168	2.92053	-24.97559
0.2725	30.31311	-1.51062	-7.35168	-0.10071	-22.86072
0.273	43.60657	1.2085	-7.35168	2.01416	-14.09912
0.2735	40.38391	3.92761	-7.35168	0.10071	-21.45081
0.274	42.39807	0.10071	-7.35168	-7.15027	-12.38708
0.2745	37.7655	6.74744	-7.35168	0.80566	-10.77576
0.275	36.55701	11.68213	-6.74744	-8.05664	-4.33044
0.2755	33.23364	5.63965	-1.40991	2.11487	-5.53894
0.276	32.52869	9.26514	2.5177	-6.04248	-0.40283
0.2765	29.00391	15.20691	1.61133	-1.10779	1.40991
0.277	22.6593	7.04956	1.81274	-5.13611	5.53894
0.2775	16.51611	1.2085	-0.10071	-3.02124	8.7616
0.278	5.94177	-0.60425	-4.63257	-3.02124	9.76868
0.2785	11.38	-4.53186	-1.51062	-4.33044	18.63098
0.279	-5.33752	-4.22974	-1.91345	1.3092	18.02673
0.2795	-7.45239	-13.09204	-0.70496	-1.10779	20.04089
0.28	-6.54602	-11.17859	0.40283	0.70496	23.56567
0.2805	-9.76868	-11.2793	1.10779	1.2085	18.53027
0.281	-9.66797	-16.41541	2.5177	-2.61841	16.81824
0.2815	-17.22107	-14.40125	-3.7262	-0.50354	17.42249
0.282	-28.60107	-16.3147	-1.00708	-2.5177	21.65222
0.2825	-31.72302	-14.90479	-1.51062	-1.51062	19.73877
0.283	-32.22656	-16.91895	1.10779	-1.71204	16.61682
0.2835	-40.78674	-20.24231	0.70496	2.5177	13.89771
0.284	-45.41931	-15.91187	-0.50354	-0.10071	8.35876
0.2845	-33.53577	-16.81824	-4.33044	-5.74036	5.74036
0.285	-35.54993	-15.60974	0.20142	-3.52478	3.62549
0.2855	-34.44214	-18.22815	-3.8269	2.31628	4.43115
0.286	-33.53577	-15.91187	-0.50354	-2.21558	-6.64673
0.2865	-30.11169	-22.96143	-3.52478	-2.5177	-8.35876
0.287	-22.86072	-16.01257	2.71912	-0.10071	-6.74744
0.2875	-25.98267	-15.40833	-3.92761	-1.71204	-12.78992
0.288	-19.23523	-9.46655	-3.7262	0.30212	-11.58142
0.2885	-8.96301	-6.14319	-5.0354	2.01416	-22.25647
0.289	-6.94885	-8.25806	-0.60425	3.7262	-18.8324
0.2895	-0.10071	-0.30212	-3.8269	-2.61841	-17.52319
0.29	2.11487	0.60425	-1.51062	-7.85522	-19.94019
0.2905	10.97717	1.3092	-6.3446	-9.97009	-23.8678
0.291	8.96301	7.15027	0.60425	-3.32336	-22.86072
0.2915	17.82532	6.74744	-5.94177	-6.2439	-17.52319
0.292	22.45789	10.87646	-3.12195	-8.66089	-15.91187
0.2925	31.32019	8.7616	-4.02832	-7.95593	-16.01257
0.293	26.48621	10.77576	-2.71912	-2.31628	-17.22107
0.2935	31.01807	13.69629	-5.33752	-7.5531	-17.6239
0.294	28.29895	12.18567	-4.43115	-2.92053	-10.57434
0.2945	23.66638	13.59558	-2.31628	-7.5531	-5.13611
0.295	26.78833	11.58142	-1.40991	-3.52478	-3.22266
0.2955	24.87488	12.5885	-1.3092	-6.94885	-2.71912
0.296	25.98267	14.50195	1.2085	-2.81982	0.70496
0.2965	31.72302	6.94885	-2.71912	-8.66089	5.43823
0.297	21.85364	14.40125	3.02124	-3.92761	-2.31628
0.2975	17.72461	12.08496	0.10071	-4.12903	9.16443
0.298	8.66089	3.02124	5.94177	-1.91345	16.21399
0.2985	4.93469	9.46655	-0.10071	-0.10071	15.71045
0.299	-5.13611	6.14319	3.52478	-1.91345	17.52319
0.2995	-11.48071	1.51062	3.92761	1.10779	16.91895
0.3	-9.86938	-1.2085	3.7262	-5.53894	16.91895
0.3005	-17.6239	-5.74036	1.81274	-1.40991	20.44373
0.301	-20.24231	-9.16443	8.05664	-3.12195	23.06213
0.3015	-22.05505	-11.58142	1.3092	1.3092	25.57983
0.302	-24.87488	-11.17859	-4.33044	-1.81274	21.04797
0.3025	-30.81665	-18.32886	-1.91345	2.41699	24.47205
0.303	-32.93152	-18.02673	-0.50354	3.02124	20.1416
0.3035	-32.32727	-15.81116	-4.63257	1.91345	7.75452
0.304	-33.13293	-14.09912	-1.61133	1.2085	13.797
0.3045	-39.07471	-18.63098	-0.40283	2.92053	5.33752
0.305	-42.19666	-16.3147	-3.02124	2.41699	4.53186
0.3055	-36.85913	-15.91187	0.30212	-2.31628	-7.65381
0.306	-35.2478	-18.42957	-2.21558	-0.10071	-5.13611
0.3065	-28.50037	-12.38708	-1.81274	-0.70496	-6.3446
0.307	-28.09753	-12.5885	-4.53186	6.44531	-9.66797
0.3075	-24.77417	-16.01257	-3.22266	5.33752	-13.49487
0.308	-19.43665	-3.92761	-0.10071	-0.90637	-12.28638
0.3085	-16.91895	-10.57434	1.51062	1.40991	-19.33594
0.309	-3.12195	-4.12903	-3.7262	3.12195	-25.37842
0.3095	3.52478	-2.11487	-8.7616	-3.8269	-23.16284
0.31	3.42407	-0.30212	-2.21558	-2.41699	-16.41541
0.3105	5.23682	2.21558	-5.63965	0.30212	-19.03381
0.311	9.26514	0.50354	0.30212	-0.70496	-18.8324
0.3115	13.99841	9.46655	1.00708	-1.81274	-21.85364
0.312	20.84656	11.17859	6.84814	-4.12903	-31.92444
0.3125	31.52161	12.68921	0.40283	-8.96301	-27.29187
0.313	30.31311	16.51611	-2.31628	-3.32336	-22.55859
0.3135	29.70886	17.01965	-5.33752	-7.45239	-14.80408
0.314	30.51453	20.04089	-5.43823	-6.94885	-12.89062
0.3145	35.04639	12.28638	-3.7262	-6.04248	-6.54602
0.315	32.83081	15.00549	-1.10779	-2.21558	-2.31628
0.3155	31.11877	12.99133	-1.40991	-6.2439	-2.31628
0.316	32.32727	7.65381	-5.94177	-1.40991	1.61133
0.3165	27.89612	7.65381	2.11487	0.50354	2.61841
0.317	19.83948	8.35876	0.70496	-5.74036	4.73328
0.3175	17.12036	11.78284	6.94885	2.81982	6.94885
0.318	12.18567	4.12903	5.63965	-4.93469	12.5885
0.3185	5.74036	-1.2085	-0.30212	-0.40283	15.60974
0.319	5.43823	-2.92053	-0.90637	-2.21558	19.43665
0.3195	-4.22974	-0.30212	-4.22974	-1.10779	18.32886
0.32	-3.8269	-3.12195	-4.83398	-4.22974	15.20691
0.3205	-12.99133	-3.62549	-1.91345	-2.11487	23.8678
0.321	-18.12744	-7.35168	-0.10071	-0.40283	20.64514
0.3215	-27.79541	-17.12036	5.94177	-4.33044	19.43665
0.322	-25.27771	-10.77576	-5.53894	6.04248	21.55151
0.3225	-33.13293	-17.32178	-5.63965	3.7262	24.67346
0.323	-37.56409	-13.89771	-4.93469	1.00708	13.19275
0.3235	-36.75842	-12.5885	-2.5177	-0.90637	12.78992
0.324	-38.87329	-16.61682	-2.41699	-0.90637	7.5531
0.3245	-40.68604	-12.08496	-1.2085	6.94885	3.02124
0.325	-36.05347	-11.58142	3.32336	0.50354	3.52478
0.3255	-35.75134	-19.63806	-0.10071	1.91345	-0.10071
0.326	-36.55701	-12.99133	-4.12903	4.53186	-3.12195
0.3265	-39.17542	-17.72461	0.80566	1.40991	-6.2439
0.327	-39.27612	-15.00549	-0.10071	-6.64673	-12.48779
0.3275	-25.47913	-15.40833	3.52478	-4.53186	-14.70337
0.328	-17.12036	-7.25098	-2.41699	-0.10071	-19.13452
0.3285	-17.52319	-7.75452	6.3446	1.10779	-16.01257
0.329	-3.8269	-8.35876	-3.7262	4.93469	-23.06213
0.3295	7.45239	-4.73328	-3.92761	2.5177	-23.16284
0.33	9.56726	-5.74036	-6.64673	3.02124	-25.27771
0.3305	7.85522	1.10779	-10.57434	0.10071	-26.88904
0.331	7.15027	2.92053	-3.12195	-2.81982	-25.68054
0.3315	15.91187	8.7616	0.70496	-6.04248	-20.64514
0.332	20.44373	10.37292	-2.92053	-8.35876	-16.3147
0.3325	26.58691	9.76868	1.00708	-1.3092	-19.33594
0.333	36.75842	7.75452	3.8269	0.50354	-16.41541
0.3335	30.31311	10.47363	1.51062	2.71912	-14.30054
0.334	32.32727	10.17151	-0.10071	2.21558	-15.91187
0.3345	25.37842	10.17151	1.10779	-5.33752	-6.04248
0.335	33.9386	12.48779	0.90637	-1.40991	-2.31628
0.3355	33.83789	6.64673	-2.11487	-1.61133	-3.7262
0.336	31.21948	12.48779	-4.93469	-3.8269	1.10779
0.3365	28.39966	10.17151	1.40991	-6.14319	7.85522
0.337	24.67346	6.64673	-1.61133	-0.20142	2.81982
0.3375	24.87488	1.10779	-5.94177	-4.73328	9.36584
0.338	24.87488	2.5177	-5.53894	-5.53894	16.21399
0.3385	16.91895	-1.51062	-4.33044	2.31628	16.81824
0.339	1.91345	0.80566	1.10779	-2.31628	25.88196
0.3395	-8.96301	-4.73328	-9.16443	1.10779	22.45789
0.34	-8.15735	-5.23682	-7.45239	-3.42407	24.67346
0.3405	-8.56018	-8.96301	-5.94177	-1.3092	24.67346
0.341	-20.24231	-6.3446	-8.35876	1.3092	17.52319
0.3415	-18.73169	-16.11328	-5.63965	6.14319	25.57983
0.342	-19.83948	-15.00549	-5.43823	2.01416	22.05505
0.3425	-31.52161	-14.80408	-9.36584	-1.91345	20.44373
0.343	-37.96692	-21.3501	-2.01416	-0.70496	18.22815
0.3435	-40.58533	-16.61682	2.71912	0.10071	18.53027
0.344	-48.84338	-19.73877	-0.30212	-1.3092	14.60266
0.3445	-51.05896	-16.41541	-5.74036	-0.20142	3.62549
0.345	-32.93152	-16.01257	-0.10071	-0.70496	0.60425
0.3455	-29.70886	-18.53027	-3.8269	-0.80566	2.11487
0.346	-26.88904	-23.8678	-0.20142	-10.17151	-3.42407
0.3465	-23.16284	-15.50903	-1.00708	-2.81982	-4.83398
0.347	-27.6947	-13.89771	-2.31628	-8.15735	-7.25098
0.3475	-19.03381	-6.3446	-9.26514	-5.43823	-11.38
0.348	-18.93311	-4.12903	-3.42407	-8.56018	-15.40833
0.3485	-18.02673	1.10779	0	-7.75452	-18.32886
0.349	-12.78992	-0.30212	0.90637	-2.61841	-19.73877
0.3495	-11.58142	7.95593	0.20142	-4.53186	-15.60974
0.35	-12.48779	5.33752	4.43115	-7.75452	-16.61682
0.3505	-0.80566	4.53186	3.8269	-11.38	-26.18408
0.351	4.53186	4.02832	1.3092	-9.26514	-24.57275
0.3515	15.00549	11.98425	2.31628	-2.5177	-18.63098
0.352	15.60974	8.56018	7.35168	-8.56018	-21.24939
0.3525	22.25647	9.16443	1.71204	-2.5177	-17.01965
0.353	29.91028	7.45239	6.04248	-1.71204	-15.40833
0.3535	28.50037	16.41541	3.32336	-7.95593	-12.38708
0.354	32.7301	11.98425	4.63257	-8.8623	-6.94885
0.3545	37.96692	14.90479	-5.33752	-12.08496	-1.51062
0.355	36.4563	11.68213	-2.71912	-6.44531	3.52478
0.3555	26.48621	18.8324	0.20142	-3.7262	8.7616
0.356	30.71594	13.19275	5.53894	-0.30212	6.64673
0.3565	26.78833	7.95593	1.10779	-3.52478	7.35168
0.357	21.65222	9.26514	0	-7.15027	14.09912
0.3575	13.19275	12.38708	-3.12195	-8.15735	16.3147
0.358	12.38708	8.45947	-1.3092	-5.33752	17.6239
0.3585	5.0354	2.92053	-0.10071	-7.85522	20.04089
0.359	-2.5177	-0.50354	-1.3092	-1.10779	26.48621
0.3595	-4.33044	-5.53894	-4.33044	-1.10779	28.9032
0.36	-4.63257	-2.41699	-4.93469	-2.5177	25.47913
0.3605	-13.797	-12.48779	-3.52478	0.10071	30.01099
0.361	-12.99133	-3.12195	-8.05664	-4.63257	28.09753
0.3615	-19.83948	-9.86938	-5.0354	-10.17151	28.70178
0.362	-23.8678	-15.00549	-9.06372	-0.90637	22.45789
0.3625	-33.73718	-19.83948	-5.33752	-1.71204	27.49329
0.363	-33.9386	-20.44373	-4.73328	-3.22266	16.51611
0.3635	-41.39099	-15.40833	-1.71204	3.12195	16.81824
0.364	-32.42798	-15.30762	-5.43823	-2.5177	21.65222
0.3645	-34.03931	-17.01965	3.22266	0	13.69629
0.365	-37.36267	-9.16443	-1.3092	-1.91345	9.36584
0.3655	-36.65771	-15.00549	-2.41699	-2.01416	-1.91345
0.366	-42.39807	-18.02673	-0.10071	0.30212	-0.90637
0.3665	-31.4209	-14.80408	-5.13611	4.93469	0.30212
0.367	-25.88196	-10.67505	-2.61841	0.50354	-3.42407
0.3675	-25.47913	-9.16443	-2.11487	-0.10071	-8.25806
0.368	-21.04797	-11.78284	-3.7262	7.85522	-15.81116
0.3685	-10.17151	-5.53894	-5.74036	0.50354	-16.91895
0.369	-4.83398	3.32336	0.50354	2.31628	-16.41541
0.3695	0.20142	0.50354	4.63257	-1.61133	-25.27771
0.37	0.50354	-0.60425	-0.30212	-1.51062	-19.53735
0.3705	1.3092	2.81982	3.22266	-10.57434	-16.01257
0.371	8.56018	-0.50354	3.42407	-0.70496	-18.8324
0.3715	12.5885	5.13611	-0.90637	-3.7262	-15.00549
0.372	16.91895	3.02124	-5.43823	-5.63965	-17.32178
0.3725	29.20532	10.0708	-0.10071	-2.31628	-25.47913
0.373	26.28479	8.15735	-0.30212	-3.12195	-22.15576
0.3735	33.43506	0.20142	-3.52478	1.3092	-5.74036
0.374	31.52161	6.04248	1.71204	2.11487	-8.05664
0.3745	28.19824	8.56018	-1.51062	-4.93469	0.10071
0.375	31.32019	10.67505	-2.92053	-4.73328	-5.94177
0.3755	25.68054	13.39417	-7.75452	4.12903	-5.0354
0.376	24.97559	8.25806	-1.2085	-3.92761	5.74036
0.3765	25.68054	12.28638	2.11487	-0.10071	6.2439
0.377	20.04089	6.14319	-1.91345	-3.8269	9.86938
0.3775	15.30762	7.85522	0.60425	-3.7262	8.8623
0.378	10.57434	1.91345	1.2085	-6.14319	9.36584
0.3785	5.53894	0.30212	-1.00708	1.2085	16.71753
0.379	2.81982	-5.43823	-6.44531	5.84106	20.44373
0.3795	0	-3.12195	-6.74744	2.11487	24.06921
0.38	-8.96301	-6.14319	-7.35168	2.31628	15.30762
0.3805	-10.27222	-9.97009	-5.13611	-2.61841	20.24231
0.381	-13.19275	-7.95593	-2.01416	0.30212	23.46497
0.3815	-22.05505	-13.09204	-0.10071	6.54602	23.36426
0.382	-31.21948	-11.58142	1.91345	0.60425	24.87488
0.3825	-36.15417	-13.797	4.63257	0.90637	20.24231
0.383	-41.59241	-18.73169	1.61133	2.01416	18.63098
0.3835	-40.78674	-12.18567	2.11487	0.10071	22.25647
0.384	-43.40515	-19.94019	1.00708	1.91345	14.19983
0.3845	-43.70728	-10.37292	-5.53894	3.02124	-0.30212
0.385	-41.18958	-10.57434	-1.40991	-0.10071	4.53186
0.3855	-36.95984	-19.63806	-7.45239	2.01416	-0.60425
0.386	-38.47046	-12.08496	-1.51062	-2.61841	0.10071
0.3865	-36.85913	-12.89062	-7.04956	1.10779	-2.5177
0.387	-37.66479	-10.47363	1.61133	-0.60425	-8.45947
0.3875	-38.16833	-1.3092	0.30212	-0.10071	-16.41541
0.388	-30.81665	-6.2439	-3.12195	4.33044	-16.61682
0.3885	-16.71753	-3.8269	2.92053	-2.41699	-24.06921
0.389	-9.16443	-2.41699	2.31628	-0.20142	-28.29895
0.3895	1.40991	-2.5177	0.90637	-6.74744	-28.60107
0.39	7.35168	-6.04248	-3.52478	-1.10779	-27.39258
0.3905	19.83948	-8.15735	-1.40991	-0.40283	-18.32886
0.391	18.02673	-2.11487	1.00708	0.90637	-18.53027
0.3915	21.45081	-1.40991	-3.42407	-1.91345	-25.98267
0.392	26.48621	4.02832	-6.94885	-1.71204	-18.53027
0.3925	30.81665	12.08496	5.63965	-3.02124	-23.26355
0.393	27.49329	10.0708	-0.70496	-9.97009	-17.32178
0.3935	30.91736	5.74036	1.00708	-1.51062	-15.1062
0.394	35.95276	9.86938	0.10071	-6.54602	-13.59558
0.3945	36.15417	11.17859	-1.81274	-7.15027	-2.92053
0.395	31.62231	5.94177	-5.53894	-3.42407	-2.21558
0.3955	28.29895	5.43823	1.3092	0.40283	-3.22266
0.396	24.97559	7.15027	-2.5177	-3.42407	4.33044
0.3965	28.29895	10.27222	1.61133	-2.61841	1.61133
0.397	24.37134	9.06372	-7.65381	-2.5177	7.15027
0.3975	16.21399	2.5177	-3.12195	2.31628	8.7616
0.398	17.72461	-0.90637	-4.93469	-0.40283	12.99133
0.3985	11.58142	-2.61841	0	-9.16443	13.69629
0.399	0.90637	1.81274	-4.33044	-1.61133	23.06213
0.3995	-4.33044	-3.7262	-7.95593	-2.5177	21.45081
0.4	-9.06372	-6.2439	-6.3446	-0.10071	20.04089
0.4005	-14.40125	-8.8623	2.31628	2.21558	18.42957
0.401	-20.74585	-8.05664	-0.50354	-5.33752	16.71753
0.4015	-20.74585	-14.30054	-7.15027	-1.81274	21.3501
0.402	-26.08337	-11.2793	-5.63965	-6.2439	19.73877
0.4025	-35.04639	-15.20691	-4.33044	-0.60425	19.13452
0.403	-42.59949	-11.07788	3.7262	1.3092	8.66089
0.4035	-38.16833	-20.24231	-2.92053	2.71912	3.92761
0.404	-39.47754	-19.23523	4.33044	-0.10071	2.71912
0.4045	-41.39099	-21.55151	5.13611	-5.23682	-1.91345
0.405	-41.39099	-20.04089	1.81274	-3.12195	-0.10071
0.4055	-41.4917	-21.65222	6.64673	2.11487	-4.12903
0.406	-31.92444	-16.51611	0.20142	5.53894	-7.5531
0.4065	-32.83081	-13.797	1.3092	-0.10071	-3.92761
0.407	-30.2124	-12.5885	-2.61841	2.31628	-8.66089
0.4075	-26.78833	-7.45239	-3.8269	-0.50354	-17.22107
0.408	-16.61682	-10.57434	1.71204	-1.2085	-22.05505
0.4085	-10.97717	-7.5531	-5.94177	-3.12195	-18.22815
0.409	-6.14319	1.61133	-5.33752	-4.12903	-25.177
0.4095	-7.95593	6.94885	-11.58142	-0.30212	-25.07629
0.41	-2.81982	5.94177	-4.53186	-3.12195	-20.94727
0.4105	4.12903	5.0354	-2.61841	0.50354	-22.05505
0.411	15.40833	7.85522	-1.51062	-2.81982	-26.48621
0.4115	13.89771	6.84814	-3.12195	1.10779	-23.46497
0.412	18.73169	4.22974	-2.81982	-4.33044	-23.06213
0.4125	20.44373	13.29346	-0.10071	-1.10779	-20.24231
0.413	30.41382	10.87646	-2.41699	2.31628	-16.71753
0.4135	26.88904	13.19275	3.62549	-0.10071	-14.60266
0.414	32.62939	10.57434	3.22266	-7.5531	-7.5531
0.4145	30.81665	4.33044	3.7262	-3.42407	-5.13611
0.415	34.84497	9.97009	-4.33044	-4.63257	-2.31628
0.4155	32.83081	9.76868	-8.35876	-4.83398	-7.5531
0.416	22.25647	15.20691	1.10779	-3.62549	-8.15735
0.4165	25.98267	8.56018	-0.90637	-0.20142	-1.3092
0.417	27.79541	-0.30212	-3.22266	0.80566	-4.02832
0.4175	23.26355	-1.71204	-4.53186	-0.70496	6.54602
0.418	13.99841	-0.80566	-6.04248	-4.73328	12.48779
0.4185	13.797	-2.11487	-2.11487	-4.33044	14.60266
0.419	3.02124	-2.5177	-2.31628	2.5177	16.91895
0.4195	-7.15027	-5.94177	-3.8269	0.70496	13.99841
0.42	-3.12195	-7.15027	-2.21558	0.50354	18.73169
0.4205	-18.8324	-10.27222	-1.40991	0.20142	13.29346
0.421	-18.8324	-8.8623	1.2085	-1.91345	15.81116
0.4215	-17.72461	-15.50903	-6.3446	-2.81982	15.50903
0.422	-31.01807	-14.09912	-6.64673	-2.81982	15.40833
0.4225	-30.51453	-11.88354	-7.65381	-2.81982	13.797
0.423	-32.93152	-14.19983	-8.25806	-2.81982	10.47363
0.4235	-37.26196	-13.99841	-5.23682	-2.81982	11.58142
0.424	-40.08179	-9.26514	-6.74744	-2.81982	5.74036
0.4245	-37.96692	-11.07788	-4.43115	-2.81982	1.51062
0.425	-38.47046	-10.57434	-10.67505	-2.81982	-5.33752
0.4255	-42.19666	-14.80408	1.10779	-2.81982	-6.14319
0.426	-40.2832	-12.18567	6.44531	-2.81982	-8.35876
0.4265	-34.34143	-3.12195	-2.11487	-2.81982	-14.40125
0.427	-36.35559	0	-0.20142	-2.81982	-14.60266
0.4275	-28.19824	-9.97009	-0.10071	-2.81982	-15.40833
0.428	-21.75293	-5.13611	2.92053	-2.81982	-29.60815
0.4285	-19.03381	-5.74036	-1.91345	-2.81982	-23.66638
0.429	-9.16443	-0.50354	0.40283	-3.32336	-29.60815
0.4295	-6.64673	-1.10779	2.5177	0.70496	-30.11169
0.43	1.71204	-1.40991	-1.00708	-4.33044	-26.68762
0.4305	7.85522	2.31628	-0.40283	-1.40991	-25.37842
0.431	8.35876	2.31628	2.21558	-4.02832	-33.73718
0.4315	12.99133	4.63257	1.81274	1.10779	-31.92444
0.432	26.78833	8.25806	4.53186	4.12903	-35.75134
0.4325	27.59399	5.0354	0.30212	-0.30212	-26.78833
0.433	31.11877	9.26514	1.3092	2.31628	-16.71753
0.4335	34.44214	18.8324	-0.10071	0.20142	-16.41541
0.434	32.52869	10.17151	1.91345	4.02832	-19.23523
0.4345	35.85205	5.94177	-4.53186	0.30212	-17.22107
0.435	33.03223	7.75452	-4.12903	-0.10071	-15.30762
0.4355	33.43506	4.93469	-4.12903	0.30212	-15.40833
0.436	34.24072	8.56018	-0.30212	-2.41699	-4.12903
0.4365	24.67346	5.33752	2.31628	-0.30212	-7.35168
0.437	22.86072	9.76868	2.21558	-0.80566	-6.54602
0.4375	17.42249	10.27222	-4.83398	-2.21558	8.7616
0.438	15.81116	9.36584	-5.13611	-0.60425	14.50195
0.4385	6.94885	4.63257	-1.40991	1.51062	15.81116
0.439	-2.71912	4.93469	-2.11487	-1.3092	14.70337
0.4395	0.60425	-2.11487	-4.63257	5.53894	18.93311
0.44	-4.43115	-6.04248	-0.50354	-2.71912	19.33594
0.4405	-6.94885	-11.58142	-0.10071	-2.61841	20.44373
0.441	-19.03381	-10.77576	-0.50354	1.3092	11.2793
0.4415	-23.96851	-11.2793	5.63965	4.53186	16.61682
0.442	-26.28479	-16.3147	8.15735	-1.61133	17.12036
0.4425	-33.73718	-15.00549	4.83398	-1.71204	13.09204
0.443	-40.68604	-16.01257	-1.3092	4.53186	8.96301
0.4435	-43.80798	-17.52319	2.11487	-1.2085	4.02832
0.444	-37.7655	-13.99841	4.53186	1.91345	5.43823
0.4445	-38.26904	-10.97717	2.41699	4.33044	-3.92761
0.445	-40.68604	-5.33752	-5.23682	-0.60425	-6.94885
0.4455	-43.20374	-11.98425	-3.7262	1.91345	-0.70496
0.446	-36.35559	-14.80408	-7.5531	3.02124	-1.10779
0.4465	-35.95276	-20.64514	4.12903	-0.30212	-4.73328
0.447	-26.68762	-15.91187	-6.64673	3.92761	-12.48779
0.4475	-29.91028	-12.89062	-5.13611	-1.10779	-9.97009
0.448	-21.24939	-5.43823	-4.02832	4.33044	-15.81116
0.4485	-20.54443	-3.12195	3.7262	-2.41699	-20.44373
0.449	-14.40125	-2.11487	6.84814	-0.30212	-24.06921
0.4495	-13.99841	2.81982	1.40991	-1.10779	-24.77417
0.45	-4.73328	3.12195	2.61841	-4.33044	-23.96851
0.4505	3.32336	5.0354	4.53186	0.20142	-24.47205
0.451	9.97009	4.53186	-2.41699	-5.13611	-32.02515
0.4515	15.40833	0.90637	4.12903	-5.23682	-24.87488
0.452	14.09912	9.36584	1.3092	-0.50354	-25.27771
0.4525	28.29895	12.5885	-0.10071	-0.40283	-19.83948
0.453	31.32019	5.13611	1.51062	-4.22974	-20.84656
0.4535	29.30603	14.19983	1.71204	-8.66089	-14.19983
0.454	30.11169	16.81824	-0.10071	1.71204	-9.36584
0.4545	28.50037	9.66797	4.53186	-4.02832	-8.35876
0.455	36.65771	12.18567	4.73328	-1.3092	-11.98425
0.4555	24.06921	13.89771	5.94177	0.50354	-0.70496
0.456	26.68762	8.7616	4.53186	-8.05664	-0.50354
0.4565	22.76001	6.3446	3.92761	0.40283	-0.80566
0.457	18.63098	6.44531	2.41699	-3.62549	8.05664
0.4575	16.21399	5.0354	7.75452	-0.30212	5.13611
0.458	12.08496	5.43823	-9.56726	-0.20142	7.35168
0.4585	8.96301	2.21558	0.80566	-3.92761	12.78992
0.459	7.15027	-4.33044	0.10071	-0.60425	18.8324
0.4595	2.21558	-1.2085	-5.84106	-0.90637	19.94019
0.46	-7.5531	-7.95593	1.81274	0.40283	16.61682
0.4605	-11.2793	-15.20691	-1.61133	-4.73328	21.85364
0.461	-17.42249	-18.12744	0.10071	2.81982	16.61682
0.4615	-17.6239	-14.80408	-0.10071	2.71912	18.63098
0.462	-29.20532	-14.70337	-3.7262	4.22974	19.94019
0.4625	-32.52869	-15.40833	-3.42407	2.31628	18.73169
0.463	-41.69312	-17.22107	-10.57434	1.00708	15.81116
0.4635	-34.64355	-11.48071	-5.13611	0.50354	9.97009
0.464	-39.57825	-17.22107	-4.12903	1.91345	6.54602
0.4645	-37.36267	-19.63806	-0.10071	-0.90637	1.10779
0.465	-36.95984	-15.40833	-5.74036	6.14319	2.31628
0.4655	-42.19666	-15.50903	-7.95593	6.2439	-9.86938
0.466	-41.18958	-17.92603	-6.74744	8.96301	-0.90637
0.4665	-30.11169	-17.6239	-1.10779	4.93469	-12.5885
0.467	-25.98267	-17.01965	-3.92761	3.42407	-10.17151
0.4675	-22.96143	-9.66797	-1.81274	4.02832	-12.18567
0.468	-22.05505	-12.48779	0.70496	0.40283	-16.01257
0.4685	-12.5885	-12.48779	-5.33752	5.13611	-21.45081
0.469	-4.83398	-7.5531	-3.12195	3.7262	-19.13452
0.4695	-3.52478	-5.63965	-0.70496	-0.50354	-28.39966
0.47	-4.02832	0.60425	-4.93469	0.30212	-21.95435
0.4705	2.41699	3.7262	-2.92053	-0.10071	-18.53027
0.471	11.07788	2.92053	0.60425	-2.31628	-24.87488
0.4715	15.40833	5.84106	0.20142	2.11487	-21.3501
0.472	22.86072	4.63257	-1.81274	-5.94177	-22.96143
0.4725	25.27771	5.13611	-6.3446	-1.51062	-23.06213
0.473	32.7301	8.96301	-4.22974	-0.10071	-19.03381
0.4735	34.54285	9.76868	-5.53894	0.50354	-19.23523
0.474	33.53577	11.88354	-6.74744	-2.31628	-8.05664
0.4745	31.21948	9.86938	-2.41699	-8.35876	-5.94177
0.475	24.37134	11.58142	-8.35876	0.10071	-4.63257
0.4755	31.32019	10.0708	-4.63257	-0.10071	-3.52478
0.476	27.99683	11.78284	-0.90637	-9.36584	-1.3092
0.4765	29.20532	12.38708	-2.61841	-9.46655	6.54602
0.477	18.22815	10.27222	-6.3446	-5.84106	10.77576
0.4775	15.40833	13.39417	2.11487	-3.32336	15.20691
0.478	10.77576	7.15027	0.90637	3.02124	12.5885
0.4785	12.18567	1.00708	-0.10071	-0.30212	17.6239
0.479	0.30212	3.42407	-4.02832	-3.62549	21.95435
0.4795	-3.7262	-3.92761	-0.10071	-2.01416	20.64514
0.48	-5.74036	-7.5531	-4.33044	5.0354	20.84656
0.4805	-10.27222	-6.84814	-1.81274	-4.93469	23.46497
0.481	-22.6593	-12.99133	-2.21558	-7.15027	20.74585
0.4815	-31.4209	-15.30762	1.10779	-2.5177	15.81116
0.482	-35.54993	-17.01965	5.0354	3.8269	27.19116
0.4825	-37.86621	-15.1062	-2.71912	0	25.07629
0.483	-39.98108	-18.42957	2.11487	2.41699	17.01965
0.4835	-40.1825	-21.85364	-2.5177	0.70496	8.56018
0.484	-36.25488	-15.81116	-6.94885	2.01416	13.09204
0.4845	-35.75134	-18.63098	-3.62549	2.11487	5.74036
0.485	-40.48462	-15.40833	2.11487	3.7262	7.35168
0.4855	-41.89453	-18.42957	-1.51062	3.52478	3.22266
0.486	-38.47046	-16.61682	-2.81982	6.54602	0.10071
0.4865	-30.81665	-15.71045	-5.13611	2.92053	-10.57434
0.487	-26.68762	-11.38	-4.93469	-3.42407	-11.07788
0.4875	-21.04797	-11.98425	-3.42407	4.63257	-12.99133
0.488	-18.22815	-4.63257	-0.20142	-1.91345	-20.1416
0.4885	-18.32886	-8.05664	-3.8269	-9.16443	-12.78992
0.489	-7.5531	-3.52478	-0.10071	-3.52478	-17.6239
0.4895	0.20142	-5.74036	-3.42407	-0.20142	-21.24939
0.49	2.5177	-2.11487	4.43115	-1.40991	-16.41541
0.4905	9.76868	-2.11487	-3.52478	-7.04956	-21.04797
0.491	6.2439	7.75452	0.50354	-0.10071	-22.6593
0.4915	15.60974	5.0354	-3.22266	-0.80566	-23.46497
0.492	18.32886	6.14319	-5.84106	-5.43823	-19.23523
0.4925	26.08337	12.08496	0.90637	-3.7262	-23.66638
0.493	31.4209	12.5885	3.02124	-6.14319	-20.34302
0.4935	34.24072	14.50195	3.22266	-2.71912	-19.43665
0.494	33.33435	12.5885	0.30212	-2.31628	-14.80408
0.4945	36.85913	15.91187	2.71912	-3.8269	-7.25098
0.495	29.10461	11.98425	1.81274	-0.10071	-5.84106
0.4955	23.66638	13.69629	2.31628	-4.53186	-8.7616
0.496	26.48621	13.59558	6.64673	-5.23682	1.51062
0.4965	25.57983	12.28638	-0.10071	-11.58142	-4.33044
0.497	19.83948	8.05664	8.25806	-3.62549	3.92761
0.4975	12.99133	5.33752	2.41699	-5.63965	6.84814
0.498	7.04956	3.92761	1.91345	-2.41699	16.11328
0.4985	1.91345	1.61133	0.60425	-0.20142	24.57275
0.499	-2.11487	2.31628	-6.44531	-2.41699	19.63806
0.4995	-7.75452	-1.3092	-2.31628	1.10779	17.12036
0.5	-7.75452	-3.7262	-0.70496	0.50354	22.25647
0.5005	-18.12744	-7.35168	-2.31628	0.90637	12.78992
0.501	-18.8324	-3.52478	-0.40283	7.35168	16.91895
0.5015	-26.88904	-5.94177	-0.70496	5.74036	13.29346
0.502	-32.42798	-8.56018	-3.52478	2.11487	20.1416
0.5025	-37.96692	-11.78284	-4.93469	3.12195	16.01257
0.503	-40.48462	-15.20691	-3.8269	5.13611	17.12036
0.5035	-39.67896	-15.71045	-10.57434	-0.10071	13.49487
0.504	-32.62939	-17.12036	-10.0708	2.21558	14.60266
0.5045	-30.2124	-17.82532	-12.5885	1.10779	4.12903
0.505	-30.31311	-23.06213	-12.5885	-0.10071	5.94177
0.5055	-25.98267	-26.68762	-9.16443	0.80566	1.40991
0.506	-29.20532	-23.8678	-1.40991	-2.61841	-6.74744
0.5065	-24.77417	-8.96301	0.50354	-7.45239	-5.13611
0.507	-24.87488	-11.48071	-4.73328	-4.12903	-13.99841
0.5075	-17.92603	-18.63098	5.53894	-2.21558	-5.84106
0.508	-21.85364	-9.06372	2.5177	-2.41699	-16.41541
0.5085	-9.46655	-6.3446	-1.91345	3.32336	-16.3147
0.509	-5.53894	-0.90637	-1.00708	1.00708	-20.84656
0.5095	-3.7262	-2.11487	-2.41699	0.50354	-22.35718
0.51	1.91345	-5.13611	-7.25098	-0.30212	-29.10461
0.5105	9.16443	-1.81274	1.61133	-2.41699	-19.33594
0.511	12.48779	3.42407	-2.11487	-1.91345	-18.02673
0.5115	11.58142	10.0708	-2.11487	3.22266	-11.98425
0.512	20.54443	13.797	-5.74036	-2.31628	-20.04089
0.5125	23.8678	10.37292	4.43115	-0.80566	-19.73877
0.513	29.70886	9.26514	6.04248	-7.95593	-18.42957
0.5135	39.27612	5.74036	0.40283	-8.35876	-17.12036
0.514	27.6947	13.39417	1.10779	-8.15735	-15.40833
0.5145	34.34143	7.35168	2.11487	-9.56726	-9.97009
0.515	32.42798	11.98425	-1.40991	-5.0354	-3.7262
0.5155	32.83081	11.2793	-3.92761	-7.5531	-4.63257
0.516	32.12585	8.15735	2.31628	-2.61841	0.50354
0.5165	26.48621	12.5885	0.80566	2.92053	4.73328
0.517	29.91028	12.89062	0.50354	-6.14319	3.7262
0.5175	20.1416	1.2085	2.71912	-5.53894	11.68213
0.518	14.50195	3.32336	0.70496	-4.33044	10.37292
0.5185	0.90637	-1.3092	0.70496	-1.51062	15.30762
0.519	4.12903	-6.94885	-1.71204	1.3092	19.53735
0.5195	5.33752	-3.12195	-3.8269	4.93469	22.25647
0.52	-6.74744	-6.74744	-2.92053	1.61133	27.09045
0.5205	-12.28638	-8.15735	-4.63257	-0.30212	17.6239
0.521	-15.40833	-13.19275	-7.15027	1.40991	18.42957
0.5215	-15.60974	-7.75452	-6.3446	-0.70496	25.47913
0.522	-23.46497	-13.59558	-1.91345	1.40991	25.88196
0.5225	-31.32019	-18.53027	-5.43823	4.33044	19.73877
0.523	-34.14001	-11.58142	-5.94177	-0.70496	12.38708
0.5235	-37.96692	-20.44373	-4.02832	9.16443	9.86938
0.524	-36.15417	-15.40833	-5.74036	1.61133	9.76868
0.5245	-36.55701	-15.81116	-2.11487	-0.10071	6.64673
0.525	-38.16833	-15.91187	-1.2085	4.83398	4.53186
0.5255	-37.7655	-13.19275	-0.90637	3.92761	6.14319
0.526	-35.44922	-13.59558	-3.42407	-2.41699	-0.90637
0.5265	-32.42798	-13.797	-2.71912	1.71204	-11.17859
0.527	-32.22656	-13.59558	-0.90637	0	-6.64673
0.5275	-27.89612	-8.96301	0.10071	-0.30212	-14.50195
0.528	-23.26355	-8.8623	2.5177	-1.3092	-25.57983
0.5285	-21.85364	-3.62549	2.21558	-2.01416	-16.91895
0.529	-9.06372	3.8269	3.7262	0.10071	-23.66638
0.5295	-4.73328	-0.60425	5.94177	2.71912	-22.05505
0.53	-1.3092	-2.41699	6.54602	3.92761	-19.94019
0.5305	2.5177	4.12903	4.02832	-1.3092	-21.45081
0.531	7.95593	7.75452	4.93469	4.53186	-23.66638
0.5315	12.89062	5.23682	2.5177	-4.12903	-27.99683
0.532	22.86072	7.35168	-1.10779	-9.06372	-24.06921
0.5325	32.7301	13.59558	1.81274	-5.84106	-28.29895
0.533	30.91736	10.87646	-1.00708	2.81982	-13.99841
0.5335	32.02515	10.77576	-2.31628	-2.5177	-16.01257
0.534	32.93152	11.98425	-4.02832	-2.71912	-10.77576
0.5345	23.26355	13.69629	-10.0708	2.01416	-8.8623
0.535	31.01807	13.59558	-2.11487	1.71204	-2.21558
0.5355	26.68762	12.18567	-4.12903	-2.61841	1.00708
0.536	33.53577	13.89771	-2.41699	-9.16443	0.10071
0.5365	24.67346	8.35876	1.10779	-7.25098	2.31628
0.537	26.08337	9.66797	5.74036	-0.50354	11.98425
0.5375	13.99841	4.53186	7.45239	-0.60425	17.22107
0.538	9.46655	-0.40283	5.23682	-0.30212	16.81824
0.5385	9.16443	-3.12195	-1.71204	-3.22266	13.29346
0.539	-2.71912	-7.75452	-3.52478	2.5177	23.56567
0.5395	-3.8269	-3.52478	0.80566	2.01416	22.55859
0.54	-14.70337	-5.94177	-5.0354	0.10071	29.20532
0.5405	-13.69629	-4.12903	-2.11487	0.90637	30.2124
0.541	-18.73169	-5.74036	-1.91345	0.50354	20.44373
0.5415	-20.1416	-10.57434	-2.31628	1.10779	16.81824
0.542	-26.78833	-10.27222	-3.52478	4.12903	18.02673
0.5425	-29.80957	-12.18567	-6.14319	0.10071	23.26355
0.543	-40.78674	-15.60974	-2.61841	0.20142	17.01965
0.5435	-41.39099	-19.23523	-4.43115	-1.3092	9.06372
0.544	-43.70728	-15.50903	-1.00708	-0.70496	8.15735
0.5445	-43.30444	-15.1062	0.10071	-3.12195	6.44531
0.545	-41.39099	-13.797	0.80566	5.33752	2.21558
0.5455	-37.16125	-12.78992	0.90637	-1.00708	-2.71912
0.546	-36.95984	-15.81116	-4.83398	3.92761	-7.65381
0.5465	-37.16125	-8.35876	-3.02124	2.92053	-6.64673
0.547	-35.95276	-7.65381	-4.02832	-1.3092	-5.0354
0.5475	-33.63647	0.70496	-0.70496	0.50354	-16.01257
0.548	-31.11877	-6.14319	0.50354	-2.5177	-13.09204
0.5485	-20.84656	-3.92761	0.10071	-4.33044	-14.19983
0.549	-14.40125	2.71912	2.5177	2.71912	-23.36426
0.5495	-2.92053	4.83398	0	3.52478	-20.04089
0.55	2.71912	1.40991	-0.10071	0.80566	-23.66638
0.5505	12.38708	5.33752	-0.40283	-3.32336	-18.63098
0.551	9.36584	0.50354	-1.71204	2.61841	-19.83948
0.5515	15.60974	0.70496	-0.70496	0.90637	-24.27063
0.552	19.83948	9.26514	-3.62549	-2.11487	-22.55859
0.5525	26.58691	13.797	1.2085	-1.2085	-21.85364
0.553	24.77417	11.78284	7.75452	2.01416	-15.71045
0.5535	27.6947	16.3147	1.40991	6.74744	-14.90479
0.554	31.62231	18.12744	-0.10071	0.40283	-15.91187
0.5545	32.22656	9.76868	-0.70496	0.70496	-9.97009
0.555	36.25488	9.06372	-2.5177	0.90637	-12.68921
0.5555	38.16833	7.85522	-1.00708	0.30212	-5.94177
0.556	27.79541	9.16443	2.5177	0.50354	-0.10071
0.5565	20.04089	6.94885	-3.8269	3.52478	-0.10071
0.557	23.66638	6.94885	-2.92053	7.35168	6.54602
0.5575	24.27063	1.40991	1.81274	-5.23682	11.07788
0.558	17.42249	3.02124	-0.70496	0.50354	13.69629
0.5585	16.21399	-4.12903	-10.17151	2.92053	20.74585
0.559	5.53894	-7.15027	1.61133	-2.11487	22.45789
0.5595	3.92761	-8.56018	-2.41699	-2.01416	22.25647
0.56	-6.44531	-9.36584	-5.74036	-0.10071	23.66638
0.5605	-14.70337	-13.99841	0.50354	1.61133	32.83081
0.561	-17.6239	-12.18567	-10.87646	-0.30212	27.09045
0.5615	-21.14868	-15.30762	-3.32336	-2.71912	25.57983
0.562	-28.29895	-22.45789	2.5177	-2.21558	26.88904
0.5625	-32.22656	-16.81824	-0.10071	-0.80566	22.86072
0.563	-34.34143	-22.6593	-7.85522	2.31628	18.12744
0.5635	-34.03931	-22.76001	-5.23682	-4.53186	14.80408
0.564	-39.07471	-15.1062	-4.22974	-1.91345	14.40125
0.5645	-35.14709	-15.1062	-7.5531	-5.53894	6.54602
0.565	-33.73718	-10.87646	-6.94885	-1.91345	-5.0354
0.5655	-31.11877	-14.60266	-10.57434	-0.10071	-5.74036
0.566	-33.9386	-13.09204	-6.2439	5.0354	-8.66089
0.5665	-33.73718	-11.58142	-8.35876	2.92053	-7.5531
0.567	-32.62939	-9.56726	-5.53894	0.30212	-10.67505
0.5675	-23.66638	-16.91895	-2.31628	-0.10071	-8.45947
0.568	-23.66638	-10.47363	1.51062	1.10779	-14.80408
0.5685	-9.86938	-1.91345	-2.31628	4.53186	-23.66638
0.569	-1.51062	-5.13611	0.50354	-1.00708	-19.83948
0.5695	-4.43115	-0.10071	1.71204	2.41699	-18.22815
0.57	4.02832	2.21558	-5.23682	4.12903	-25.27771
0.5705	12.89062	1.10779	-4.53186	3.22266	-23.66638
0.571	13.49487	4.33044	0.40283	0.80566	-21.95435
0.5715	17.22107	6.44531	-4.43115	-1.00708	-22.6593
0.572	29.91028	10.87646	-6.2439	0.40283	-21.24939
0.5725	35.75134	6.64673	-3.52478	-1.3092	-22.35718
0.573	33.23364	12.89062	-3.52478	0.60425	-18.32886
0.5735	34.14001	14.30054	-3.52478	-1.61133	-9.97009
0.574	33.53577	11.98425	-2.71912	-2.21558	-10.17151
0.5745	31.82373	12.38708	1.91345	-2.31628	-7.95593
0.575	29.70886	3.7262	0.20142	1.10779	-10.77576
0.5755	28.50037	9.06372	0.90637	1.10779	-1.91345
0.576	27.49329	15.50903	0.90637	-0.30212	2.81982
0.5765	20.34302	12.28638	-3.02124	0.70496	2.5177
0.577	17.52319	4.63257	-1.61133	-4.93469	7.95593
0.5775	17.82532	4.22974	6.84814	2.5177	4.93469
0.578	16.11328	0.10071	5.53894	-0.10071	8.15735
0.5785	-1.10779	-0.20142	-0.70496	-0.60425	8.45947
0.579	-6.04248	2.41699	2.21558	-2.5177	16.51611
0.5795	-15.30762	-8.35876	5.13611	-5.33752	14.60266
0.58	-13.99841	-3.62549	6.44531	-0.70496	16.3147
0.5805	-17.72461	-9.97009	6.94885	-3.12195	17.42249
0.581	-15.71045	-6.84814	6.94885	3.32336	22.35718
0.5815	-26.28479	-11.68213	2.92053	3.92761	17.32178
0.582	-33.43506	-17.12036	4.22974	4.02832	16.91895
0.5825	-38.06763	-16.51611	-2.5177	5.53894	18.02673
0.583	-39.88037	-22.86072	1.00708	-0.30212	10.37292
0.5835	-41.89453	-12.38708	-10.27222	4.53186	11.07788
0.584	-38.36975	-11.98425	-4.33044	0.60425	5.53894
0.5845	-31.82373	-7.75452	-5.13611	0.30212	1.00708
0.585	-31.52161	-13.19275	-3.12195	-3.7262	1.40991
0.5855	-35.44922	-10.37292	-7.5531	-0.50354	2.92053
0.586	-31.4209	-17.72461	-4.22974	-4.73328	-3.7262
0.5865	-32.12585	-11.17859	1.10779	-0.10071	-6.94885
0.587	-28.70178	-9.16443	0.50354	-4.33044	-10.17151
0.5875	-34.34143	-9.16443	-0.50354	-6.04248	-17.01965
0.588	-22.45789	-9.46655	-5.94177	4.53186	-15.91187
0.5885	-16.11328	-4.73328	0.10071	0.30212	-19.23523
0.589	-10.57434	-5.43823	6.64673	-3.52478	-20.44373
0.5895	-8.8623	-1.10779	-1.71204	-1.81274	-27.49329
0.59	-7.04956	-3.7262	-0.30212	-2.61841	-16.61682
0.5905	9.36584	4.22974	4.93469	-0.50354	-19.03381
0.591	9.46655	13.09204	-0.70496	-2.71912	-21.85364
0.5915	14.80408	3.22266	-1.81274	-3.02124	-22.35718
0.592	19.94019	7.45239	3.32336	-3.02124	-26.3855
0.5925	25.47913	9.66797	1.81274	-1.10779	-15.00549
0.593	26.78833	17.72461	0.30212	-4.02832	-18.53027
0.5935	30.11169	20.04089	2.61841	-4.33044	-17.52319
0.594	35.95276	12.38708	-0.70496	-6.04248	-17.42249
0.5945	34.03931	9.56726	-3.02124	-3.02124	-9.97009
0.595	28.09753	5.74036	1.10779	-6.3446	-9.26514
0.5955	32.83081	14.80408	-2.5177	-4.43115	-4.33044
0.596	25.88196	7.15027	-0.10071	-2.92053	-0.90637
0.5965	29.50745	4.63257	-0.90637	-2.01416	6.14319
0.597	20.94727	4.33044	-3.42407	-2.81982	5.63965
0.5975	20.94727	5.13611	2.21558	-2.11487	6.74744
0.598	12.5885	3.92761	0	-6.84814	18.42957
0.5985	9.86938	-3.22266	-0.10071	-0.10071	22.05505
0.599	-1.00708	-2.01416	1.40991	-1.3092	18.42957
0.5995	-3.42407	-3.02124	-5.23682	-1.10779	22.25647
0.6	-12.28638	-4.93469	-0.80566	-2.5177	25.07629
0.6005	-8.35876	-10.67505	-3.52478	-3.32336	23.8678
0.601	-16.61682	-7.35168	-6.14319	-1.3092	21.85364
0.6015	-21.85364	-4.63257	-2.61841	-7.85522	29.40674
0.602	-23.26355	-8.45947	-5.94177	-2.31628	22.86072
0.6025	-34.24072	-11.17859	-6.94885	2.71912	22.15576
0.603	-44.91577	-16.61682	-2.11487	4.73328	17.82532
0.6035	-46.02356	-13.99841	-6.04248	1.51062	13.797
0.604	-47.13135	-6.2439	-3.92761	6.3446	12.18567
0.6045	-50.15259	-11.88354	-7.15027	2.92053	11.48071
0.605	-43.20374	-8.96301	-3.42407	6.44531	9.56726
0.6055	-38.57117	-16.01257	-3.8269	3.92761	5.0354
0.606	-32.93152	-19.73877	-3.02124	3.92761	-4.12903
0.6065	-28.09753	-23.46497	-0.70496	7.25098	-1.2085
0.607	-17.22107	-24.77417	0.80566	-0.60425	-8.35876
0.6075	-18.8324	-19.23523	-5.33752	0.80566	-6.3446
0.608	-15.1062	-9.97009	-3.42407	-1.10779	-11.07788
0.6085	-15.00549	-5.74036	-1.00708	7.85522	-22.35718
0.609	-8.35876	-0.70496	-0.90637	-2.92053	-23.66638
0.6095	3.42407	0.50354	-6.74744	-1.2085	-20.44373
0.61	4.53186	-2.92053	-1.10779	-1.81274	-19.53735
0.6105	7.35168	0.80566	2.5177	-3.7262	-18.32886
0.611	12.38708	-1.10779	4.22974	-0.80566	-19.03381
0.6115	19.83948	4.22974	1.61133	-3.02124	-22.86072
0.612	16.41541	7.25098	-1.10779	-4.12903	-20.94727
0.6125	26.78833	8.05664	-5.74036	-4.83398	-26.68762
0.613	31.21948	7.75452	-2.5177	-5.94177	-15.60974
0.6135	34.24072	8.25806	-1.00708	0.70496	-10.37292
0.614	34.64355	6.54602	2.92053	-0.10071	-3.62549
0.6145	31.62231	12.89062	1.61133	-5.53894	-6.94885
0.615	29.50745	7.65381	-4.73328	-2.61841	-2.31628
0.6155	32.32727	8.05664	-4.63257	-0.70496	-1.00708
0.616	28.19824	8.56018	1.00708	-3.32336	5.53894
0.6165	23.16284	6.74744	-2.41699	-0.50354	-0.10071
0.617	29.10461	6.04248	-4.73328	0.80566	4.33044
0.6175	20.84656	4.93469	-6.94885	2.31628	10.97717
0.618	23.16284	-5.94177	-1.10779	1.00708	14.70337
0.6185	8.35876	7.15027	-3.32336	-1.40991	17.82532
0.619	-0.70496	-5.53894	-4.43115	-2.01416	22.05505
0.6195	-7.45239	-11.98425	-9.26514	-0.10071	16.51611
0.62	-11.2793	-9.97009	-2.21558	2.01416	23.46497
0.6205	-13.797	-12.78992	-7.75452	-1.40991	17.32178
0.621	-19.13452	-10.27222	-0.10071	0.70496	16.71753
0.6215	-23.56567	-10.17151	-2.31628	-5.23682	17.52319
0.622	-24.57275	-9.66797	-5.84106	-1.3092	15.50903
0.6225	-32.62939	-4.22974	-6.64673	-2.61841	19.94019
0.623	-40.2832	-15.00549	-6.14319	4.53186	15.40833
0.6235	-37.56409	-17.12036	-5.63965	1.81274	11.58142
0.624	-35.34851	-19.63806	-4.83398	2.71912	6.14319
0.6245	-34.54285	-13.39417	-5.13611	5.53894	2.71912
0.625	-39.57825	-19.73877	2.81982	0.70496	-2.01416
0.6255	-36.75842	-16.3147	-1.00708	2.71912	-3.42407
0.626	-34.44214	-22.76001	-0.70496	-0.70496	0.30212
0.6265	-32.02515	-13.797	-1.2085	-1.61133	-5.84106
0.627	-29.80957	-11.88354	1.2085	1.3092	-6.14319
0.6275	-29.10461	-13.797	-1.61133	-4.12903	-7.95593
0.628	-15.81116	-8.05664	1.2085	2.11487	-15.20691
0.6285	-21.55151	-3.62549	-6.54602	1.71204	-20.54443
0.629	-7.35168	4.22974	-1.51062	-6.04248	-20.24231
0.6295	-2.5177	-5.84106	-6.64673	-2.31628	-25.78125
0.63	1.71204	-1.10779	-3.22266	1.71204	-24.47205
0.6305	7.15027	0	-4.33044	2.31628	-20.24231
0.631	15.50903	0.60425	-1.91345	-4.33044	-20.44373
0.6315	16.41541	1.3092	-0.40283	-6.54602	-20.44373
0.632	21.24939	8.8623	-0.50354	-9.16443	-21.85364
0.6325	27.59399	11.78284	0.70496	-7.35168	-25.37842
0.633	22.05505	11.68213	7.65381	-2.61841	-16.3147
0.6335	26.08337	8.45947	5.33752	-0.70496	-17.6239
0.634	31.72302	12.18567	3.12195	-3.12195	-10.97717
0.6345	26.78833	8.7616	2.81982	-4.83398	-10.67505
0.635	25.07629	19.33594	-1.51062	-7.65381	-2.11487
0.6355	26.28479	18.42957	2.01416	-6.64673	-4.12903
0.636	29.10461	17.92603	4.93469	-5.43823	-2.21558
0.6365	21.45081	6.44531	5.43823	-4.22974	-1.40991
0.637	16.81824	6.94885	2.81982	-6.04248	5.74036
0.6375	15.81116	9.36584	3.32336	-6.74744	5.84106
0.638	7.15027	6.74744	-0.60425	-6.64673	13.59558
0.6385	8.96301	1.3092	-4.02832	-6.74744	18.02673
0.639	2.11487	0.10071	-4.53186	-3.42407	24.47205
0.6395	-7.65381	-3.12195	-4.53186	-2.5177	29.10461
0.64	-5.53894	-3.7262	-0.90637	0.50354	22.05505
0.6405	-11.17859	-8.05664	-4.22974	-5.43823	18.22815
0.641	-20.44373	-8.56018	-3.22266	-6.04248	18.32886
0.6415	-20.94727	-12.99133	1.00708	2.71912	16.51611
0.642	-29.00391	-15.30762	-6.84814	-2.71912	22.15576
0.6425	-33.43506	-18.22815	-1.40991	2.11487	15.50903
0.643	-32.62939	-23.16284	1.10779	-1.71204	18.93311
0.6435	-38.67188	-20.64514	-2.81982	3.52478	12.38708
0.644	-39.98108	-18.02673	-4.12903	0.70496	15.91187
0.6445	-42.90161	-14.09912	-2.41699	-3.32336	5.23682
0.645	-37.36267	-16.11328	-2.61841	-0.10071	-2.61841
0.6455	-35.65063	-13.39417	-5.13611	5.53894	-1.3092
0.646	-36.35559	-15.71045	-12.18567	-3.12195	-2.61841
0.6465	-34.44214	-13.19275	-6.14319	-1.3092	-8.35876
0.647	-29.10461	-5.94177	-1.91345	-3.92761	-12.89062
0.6475	-31.82373	-5.43823	-0.90637	-0.10071	-15.50903
0.648	-26.08337	-4.73328	-2.5177	-0.40283	-20.64514
0.6485	-11.58142	-2.5177	0.90637	3.12195	-24.06921
0.649	-2.71912	-4.73328	1.81274	-4.12903	-23.06213
0.6495	-1.00708	1.51062	0.70496	-4.02832	-28.50037
0.65	7.45239	5.13611	1.91345	-4.33044	-25.07629
0.6505	4.93469	3.7262	3.8269	-1.2085	-21.65222
0.651	4.93469	6.44531	0.10071	-3.02124	-20.84656
0.6515	11.58142	8.45947	3.42407	-3.92761	-20.94727
0.652	16.71753	15.00549	6.64673	1.61133	-18.8324
0.6525	21.04797	12.5885	2.92053	-1.91345	-18.12744
0.653	29.91028	7.15027	1.71204	-0.10071	-17.22107
0.6535	28.29895	7.75452	-4.53186	-2.5177	-14.40125
0.654	32.52869	7.15027	-2.71912	-5.0354	-10.37292
0.6545	30.2124	12.89062	4.53186	0.10071	-10.17151
0.655	35.14709	11.78284	-0.70496	-2.81982	0.10071
0.6555	27.89612	3.22266	-0.50354	-6.74744	-1.71204
0.656	26.28479	8.15735	-1.81274	0.30212	-1.51062
0.6565	22.96143	13.19275	-5.84106	1.10779	3.92761
0.657	24.67346	1.2085	-5.0354	-5.13611	8.45947
0.6575	22.15576	5.53894	-1.51062	-2.61841	12.18567
0.658	13.99841	2.5177	-2.61841	-0.10071	16.41541
0.6585	10.67505	0.40283	-5.84106	-3.32336	13.797
0.659	1.10779	-4.63257	-10.47363	-3.22266	19.03381
0.6595	6.74744	-2.92053	-3.52478	-6.74744	16.51611
0.66	-3.7262	-8.35876	0.80566	-3.22266	24.06921
0.6605	-12.68921	-6.14319	-4.33044	-6.2439	18.73169
0.661	-18.32886	-4.83398	-2.5177	-1.61133	23.06213
0.6615	-29.60815	-11.98425	-0.20142	1.3092	20.34302
0.662	-38.974	-8.35876	-0.70496	3.12195	28.39966
0.6625	-36.55701	-15.40833	-4.93469	-0.10071	20.64514
0.663	-40.08179	-17.52319	-9.46655	0.50354	25.78125
0.6635	-43.00232	-18.12744	-0.90637	-3.42407	18.12744
0.664	-38.57117	-18.73169	-0.30212	-4.33044	9.16443
0.6645	-31.92444	-12.89062	-3.8269	3.42407	-0.10071
0.665	-38.87329	-12.68921	-3.02124	2.41699	-4.12903
0.6655	-36.85913	-10.37292	-5.84106	0.20142	-4.53186
0.666	-32.7301	-11.58142	-3.02124	3.22266	-5.0354
0.6665	-35.85205	-13.797	2.11487	3.7262	-4.12903
0.667	-28.70178	-9.26514	2.11487	-0.20142	-9.26514
0.6675	-23.16284	-7.65381	2.11487	-3.02124	-12.89062
0.668	-20.84656	-6.94885	2.11487	-1.3092	-13.59558
0.6685	-17.22107	-1.3092	2.11487	-0.10071	-19.63806
0.669	-6.14319	-0.20142	2.11487	-0.10071	-23.96851
0.6695	-4.83398	8.96301	2.11487	3.22266	-18.02673
0.67	0.10071	2.01416	2.11487	0.40283	-20.24231
0.6705	4.12903	3.62549	2.11487	-3.12195	-13.797
0.671	6.74744	0.70496	2.11487	-0.50354	-23.46497
0.6715	17.12036	0.40283	2.11487	7.45239	-17.92603
0.672	21.45081	6.3446	2.11487	0.60425	-25.57983
0.6725	21.04797	9.86938	2.11487	-4.33044	-27.29187
0.673	26.88904	10.37292	2.11487	-0.90637	-17.6239
0.6735	28.80249	6.14319	2.11487	-5.0354	-11.78284
0.674	29.00391	9.76868	0.60425	-7.75452	-8.15735
0.6745	34.14001	18.8324	2.61841	-4.02832	-7.75452
0.675	39.57825	13.69629	-1.51062	-5.94177	-8.66089
0.6755	32.7301	16.11328	0.10071	1.10779	-3.02124
0.676	26.88904	9.16443	-2.11487	-4.12903	3.52478
0.6765	30.71594	5.53894	-2.21558	-1.81274	4.53186
0.677	26.48621	7.5531	-0.10071	2.5177	13.69629
0.6775	27.89612	4.43115	-3.22266	-0.10071	7.65381
0.678	16.21399	-0.90637	-5.94177	-3.32336	12.99133
0.6785	4.83398	-4.83398	-4.33044	-1.51062	18.32886
0.679	2.11487	-2.5177	-2.31628	-0.40283	16.61682
0.6795	-3.92761	-4.22974	-1.51062	-3.12195	20.94727
0.68	-10.47363	-7.95593	-3.7262	-2.21558	24.87488
0.6805	-8.7616	-15.60974	0.80566	-0.90637	26.18408
0.681	-23.16284	-8.56018	-2.31628	0.10071	22.55859
0.6815	-25.177	-14.50195	2.61841	-1.51062	28.39966
0.682	-26.68762	-17.42249	1.3092	-0.50354	18.12744
0.6825	-29.30603	-14.90479	2.11487	0.90637	21.24939
0.683	-30.91736	-18.42957	-0.10071	2.71912	13.39417
0.6835	-36.35559	-16.01257	-4.53186	1.2085	15.40833
0.684	-39.37683	-12.38708	-7.85522	2.5177	8.8623
0.6845	-36.65771	-15.81116	-3.8269	4.73328	4.53186
0.685	-33.83789	-21.95435	-5.53894	6.2439	3.02124
0.6855	-33.53577	-14.90479	-4.73328	1.81274	-0.20142
0.686	-34.54285	-23.76709	-5.33752	1.91345	-8.15735
0.6865	-35.95276	-16.01257	-6.64673	1.40991	-11.48071
0.687	-31.01807	-13.797	-2.31628	-0.40283	-9.76868
0.6875	-27.19116	-10.17151	-3.7262	1.3092	-13.49487
0.688	-12.18567	-8.66089	-0.10071	-4.73328	-12.68921
0.6885	-13.49487	-7.85522	-4.73328	-1.71204	-11.88354
0.689	-6.14319	-1.00708	-0.50354	1.3092	-19.63806
0.6895	-3.62549	-3.7262	-1.2085	-2.11487	-20.1416
0.69	6.64673	2.21558	-2.5177	-10.47363	-24.47205
0.6905	0.90637	4.02832	2.92053	-1.3092	-26.48621
0.691	7.35168	7.15027	-0.10071	-4.73328	-22.25647
0.6915	12.38708	7.15027	2.11487	-5.94177	-24.06921
0.692	22.76001	8.25806	5.53894	-6.04248	-26.68762
0.6925	27.19116	7.35168	5.0354	-3.02124	-28.09753
0.693	29.10461	4.63257	0.10071	0.90637	-22.86072
0.6935	30.2124	11.58142	0.80566	-1.91345	-15.60974
0.694	34.14001	5.63965	-2.21558	-1.00708	-11.07788
0.6945	33.23364	4.63257	-3.32336	-2.61841	-11.78284
0.695	31.92444	9.76868	0.20142	-5.43823	-8.56018
0.6955	32.22656	13.69629	6.44531	-2.5177	-5.74036
0.696	23.16284	4.22974	3.7262	-7.25098	-0.30212
0.6965	27.89612	8.8623	1.71204	-3.02124	6.94885
0.697	27.49329	5.94177	2.11487	-0.60425	6.14319
0.6975	20.44373	3.7262	0.10071	-5.13611	9.26514
0.698	13.49487	5.43823	-1.51062	-5.33752	13.89771
0.6985	9.16443	4.83398	2.61841	-2.41699	20.74585
0.699	1.91345	0.10071	-9.16443	-1.51062	18.22815
0.6995	1.40991	-5.94177	0.30212	-1.00708	13.59558
0.7	-3.52478	-7.04956	-4.83398	-3.92761	21.65222
0.7005	-13.59558	-6.74744	-3.92761	-0.90637	21.14868
0.701	-16.81824	-7.15027	-5.43823	-6.84814	20.34302
0.7015	-25.27771	-11.98425	-5.13611	-4.83398	18.32886
0.702	-30.91736	-12.5885	-4.63257	-3.02124	20.64514
0.7025	-32.02515	-12.18567	-4.53186	2.01416	20.44373
0.703	-34.03931	-12.08496	-0.10071	3.7262	18.53027
0.7035	-38.67188	-15.60974	-3.02124	2.61841	12.38708
0.704	-35.2478	-13.797	-9.56726	0.70496	8.25806
0.7045	-36.55701	-12.99133	-14.90479	-2.61841	5.13611
0.705	-34.84497	-6.94885	-10.97717	1.40991	1.91345
0.7055	-31.11877	-11.07788	-10.17151	-1.10779	-1.2085
0.706	-30.61523	-12.28638	-6.54602	-0.70496	-0.50354
0.7065	-32.93152	-13.797	-5.84106	-6.94885	-4.12903
0.707	-32.7301	-9.36584	-5.74036	-2.5177	-8.8623
0.7075	-27.6947	-13.19275	-3.02124	1.61133	-9.97009
0.708	-20.64514	-7.95593	-3.32336	-1.10779	-18.42957
0.7085	-17.42249	-1.2085	5.84106	2.81982	-22.6593
0.709	-8.25806	7.85522	-2.5177	3.92761	-29.50745
0.7095	-6.94885	8.35876	2.31628	-3.52478	-23.06213
0.71	-2.92053	8.66089	4.83398	-1.91345	-21.85364
0.7105	-2.11487	12.18567	7.75452	0.90637	-23.26355
0.711	2.92053	9.86938	1.3092	0.90637	-20.74585
0.7115	6.54602	11.98425	-0.30212	5.13611	-22.96143
0.712	11.78284	10.17151	6.94885	-1.71204	-25.177
0.7125	28.39966	11.2793	4.73328	-2.11487	-25.07629
0.713	32.7301	12.48779	3.7262	-6.74744	-18.42957
0.7135	36.75842	13.59558	3.22266	-4.12903	-14.60266
0.714	39.47754	8.35876	-0.30212	-1.3092	-11.48071
0.7145	31.62231	7.5531	-3.32336	-5.53894	-12.78992
0.715	31.11877	8.25806	-1.81274	-1.51062	-6.3446
0.7155	25.57983	11.68213	5.33752	-4.73328	-5.23682
0.716	23.26355	10.17151	-0.20142	-8.05664	-0.90637
0.7165	29.20532	8.15735	-3.7262	-4.22974	3.42407
0.717	22.96143	4.83398	4.02832	-5.43823	6.54602
0.7175	23.36426	7.75452	1.71204	-9.56726	7.65381
0.718	19.63806	6.14319	-1.71204	-9.97009	13.49487
0.7185	8.7616	-0.30212	-1.10779	0.30212	18.42957
0.719	0.20142	-6.3446	5.63965	-2.92053	19.03381
0.7195	2.11487	-8.66089	-2.11487	-2.11487	18.42957
0.72	-10.37292	-6.94885	-0.10071	-3.12195	20.24231
0.7205	-12.18567	-10.67505	-2.11487	1.81274	11.78284
0.721	-15.81116	-11.88354	-2.61841	-2.5177	19.73877
0.7215	-22.76001	-10.17151	-0.90637	0.80566	17.32178
0.722	-19.13452	-16.01257	-2.61841	-1.51062	16.81824
0.7225	-30.11169	-16.41541	-11.98425	3.32336	16.71753
0.723	-26.3855	-12.99133	-11.17859	4.43115	17.42249
0.7235	-35.04639	-16.41541	-11.58142	-2.92053	12.38708
0.724	-29.60815	-14.80408	-13.19275	4.53186	8.56018
0.7245	-35.2478	-17.22107	-10.57434	5.13611	4.12903
0.725	-40.38391	-16.41541	-4.73328	2.5177	0.50354
0.7255	-31.52161	-18.02673	-6.74744	2.11487	-1.00708
0.726	-25.88196	-17.42249	-4.83398	0.80566	-1.00708
0.7265	-33.43506	-8.8623	-13.39417	0.90637	-7.35168
0.727	-30.81665	-9.97009	-7.45239	-6.44531	-6.54602
0.7275	-25.68054	-3.92761	-6.64673	4.73328	-9.56726
0.728	-13.99841	-0.80566	-7.35168	2.21558	-20.94727
0.7285	-7.35168	-5.33752	-8.96301	0	-21.95435
0.729	-0.90637	-5.94177	-2.71912	1.00708	-20.74585
0.7295	0.30212	-2.81982	-1.81274	-1.71204	-26.98975
0.73	2.41699	2.11487	-7.04956	-0.10071	-20.84656
0.7305	7.75452	4.22974	-6.64673	-1.51062	-24.57275
0.731	15.40833	5.33752	-2.5177	-5.84106	-16.61682
0.7315	16.11328	10.17151	8.35876	-2.11487	-22.05505
0.732	17.6239	10.97717	11.48071	-1.71204	-24.47205
0.7325	21.45081	10.77576	-0.10071	-3.22266	-25.47913
0.733	26.18408	13.19275	5.33752	-10.27222	-15.91187
0.7335	24.97559	13.797	4.22974	-2.11487	-17.72461
0.734	24.67346	13.797	7.15027	-1.3092	-16.71753
0.7345	21.45081	13.59558	13.09204	-3.32336	-11.2793
0.735	17.22107	15.91187	8.56018	-1.51062	0.90637
0.7355	24.37134	10.37292	2.92053	-4.73328	-4.12903
0.736	23.8678	15.00549	0.80566	-2.5177	-4.63257
0.7365	22.55859	10.87646	2.41699	-3.92761	4.73328
0.737	17.92603	10.77576	-4.22974	-3.12195	6.74744
0.7375	22.35718	11.78284	-2.71912	-1.61133	6.94885
0.738	13.29346	4.33044	4.93469	-8.35876	13.99841
0.7385	10.17151	-3.8269	1.00708	0.90637	17.22107
0.739	-8.96301	3.7262	4.02832	-4.73328	15.20691
0.7395	-12.99133	6.64673	5.63965	-8.35876	26.68762
0.74	-13.59558	-1.61133	8.7616	-0.20142	23.56567
0.7405	-23.46497	-5.0354	4.33044	0.10071	19.73877
0.741	-24.67346	-0.10071	4.53186	0.70496	19.13452
0.7415	-29.60815	-13.29346	5.94177	3.92761	21.14868
0.742	-25.37842	-11.38	0.70496	1.51062	16.81824
0.7425	-35.14709	-19.43665	3.8269	-0.30212	18.42957
0.743	-34.64355	-19.94019	2.31628	3.42407	13.39417
0.7435	-34.54285	-17.22107	-4.33044	4.63257	15.1062
0.744	-31.82373	-19.33594	-7.15027	-0.70496	7.5531
0.7445	-34.74426	-16.61682	-6.2439	1.00708	1.00708
0.745	-31.92444	-13.49487	-6.3446	3.92761	3.7262
0.7455	-32.42798	-16.71753	-2.01416	5.53894	-4.22974
0.746	-32.12585	-15.00549	2.31628	6.2439	-7.65381
0.7465	-37.56409	-15.30762	-6.74744	2.31628	-12.18567
0.747	-31.21948	-6.14319	-4.53186	1.71204	-10.57434
0.7475	-25.78125	-10.27222	2.5177	3.22266	-9.76868
0.748	-25.57983	-5.13611	-0.10071	2.71912	-17.01965
0.7485	-11.38	-5.33752	-5.23682	4.02832	-14.30054
0.749	-8.66089	0.40283	3.7262	0.90637	-21.75293
0.7495	-2.11487	0.70496	-5.94177	-4.43115	-21.55151
0.75	2.31628	0.70496	-4.53186	-7.15027	-22.45789
0.7505	12.38708	7.15027	-3.12195	-1.91345	-21.45081
0.751	6.84814	6.54602	-2.01416	1.3092	-21.24939
0.7515	5.74036	8.56018	-7.95593	-2.5177	-12.68921
0.752	23.26355	10.0708	0	-6.54602	-24.06921
0.7525	32.93152	8.96301	1.10779	-0.30212	-19.63806
0.753	32.42798	13.59558	1.71204	-1.61133	-23.36426
0.7535	32.02515	12.99133	0.20142	-5.33752	-14.80408
0.754	31.92444	12.5885	-4.63257	-4.53186	-6.74744
0.7545	33.03223	7.15027	4.33044	-12.28638	-10.37292
0.755	31.11877	14.90479	-2.71912	-1.91345	-5.53894
0.7555	24.37134	10.37292	2.61841	-0.90637	-0.50354
0.756	26.68762	13.19275	-0.10071	-4.12903	4.53186
0.7565	25.177	11.17859	2.21558	2.92053	6.54602
0.757	23.46497	7.85522	-1.91345	-0.90637	8.8623
0.7575	15.1062	10.97717	-3.02124	-0.90637	8.05664
0.758	9.36584	3.32336	-1.71204	1.71204	13.09204
0.7585	8.45947	-0.30212	0.30212	-1.10779	20.1416
0.759	-0.30212	-6.3446	-1.61133	-1.61133	20.54443
0.7595	-3.42407	-3.12195	-3.22266	2.5177	21.85364
0.76	-6.54602	-5.13611	-3.92761	0	22.76001
0.7605	-15.60974	-2.5177	-4.93469	2.71912	26.08337
0.761	-13.19275	-8.7616	-1.2085	2.21558	17.82532
0.7615	-22.05505	-15.60974	-2.71912	4.53186	21.04797
0.762	-30.11169	-10.47363	-1.2085	-4.22974	21.14868
0.7625	-32.02515	-18.22815	-2.5177	0.40283	21.95435
0.763	-37.06055	-20.04089	3.52478	6.64673	13.59558
0.7635	-38.77258	-23.26355	-4.73328	0.80566	8.7616
0.764	-38.974	-19.13452	1.2085	4.93469	2.92053
0.7645	-41.4917	-18.53027	-4.43115	6.04248	4.33044
0.765	-48.03772	-21.85364	-6.74744	-0.20142	2.92053
0.7655	-44.71436	-18.63098	-10.37292	3.7262	2.11487
0.766	-41.18958	-19.83948	-2.5177	3.42407	2.5177
0.7665	-36.65771	-16.71753	-5.74036	-0.10071	0.70496
0.767	-30.2124	-21.65222	0.20142	0.90637	-5.94177
0.7675	-27.6947	-15.40833	-2.61841	1.40991	-13.39417
0.768	-20.84656	-7.75452	-2.31628	0.70496	-14.70337
0.7685	-16.91895	-6.64673	-4.12903	1.10779	-11.07788
0.769	-6.2439	-8.66089	-0.80566	1.61133	-20.24231
0.7695	-7.75452	-1.71204	-5.74036	3.62549	-19.23523
0.77	-2.5177	4.02832	-1.91345	-1.51062	-21.95435
0.7705	0.70496	3.32336	4.73328	4.33044	-25.88196
0.771	3.32336	1.71204	4.12903	-2.92053	-23.66638
0.7715	12.08496	5.84106	1.51062	-0.90637	-20.34302
0.772	20.44373	2.11487	-3.32336	-2.31628	-23.96851
0.7725	21.45081	11.58142	-1.10779	-1.10779	-22.15576
0.773	22.96143	20.64514	-0.10071	1.10779	-11.78284
0.7735	32.62939	8.05664	-3.12195	-3.52478	-11.98425
0.774	33.43506	6.94885	-1.81274	-2.21558	-14.90479
0.7745	29.91028	10.97717	-5.74036	-7.95593	-5.53894
0.775	26.98975	12.38708	0.30212	-4.73328	-4.53186
0.7755	27.09045	9.46655	-5.43823	-1.71204	2.92053
0.776	27.49329	11.2793	-1.3092	0.10071	2.5177
0.7765	23.06213	7.85522	-3.02124	-6.3446	6.64673
0.777	24.67346	3.52478	-3.52478	-7.15027	9.36584
0.7775	20.34302	6.64673	-3.42407	-3.52478	6.94885
0.778	15.20691	12.08496	-3.02124	-6.74744	14.40125
0.7785	9.86938	-6.2439	-4.22974	-5.43823	17.12036
0.779	3.52478	-4.33044	-5.84106	-7.65381	19.53735
0.7795	-0.30212	-7.35168	-8.25806	-1.00708	20.94727
0.78	-4.73328	-7.95593	-4.43115	-3.42407	20.1416
0.7805	-11.17859	-10.87646	-3.42407	-3.22266	19.03381
0.781	-17.52319	-12.78992	2.5177	-3.32336	15.50903
0.7815	-25.177	-10.17151	-3.12195	-1.10779	17.12036
0.782	-28.60107	-14.50195	0.70496	1.81274	15.40833
0.7825	-31.82373	-20.54443	-3.12195	4.73328	16.41541
0.783	-41.18958	-11.17859	2.92053	-0.10071	15.20691
0.7835	-40.78674	-16.41541	1.10779	-2.31628	10.27222
0.784	-48.23914	-13.69629	-5.53894	-1.81274	2.61841
0.7845	-43.30444	-22.25647	-0.30212	-0.20142	1.3092
0.785	-44.51294	-19.03381	-7.35168	-0.50354	-1.91345
0.7855	-38.36975	-18.22815	-1.10779	1.91345	-5.74036
0.786	-36.55701	-11.2793	-5.74036	0.40283	-8.15735
0.7865	-31.11877	-8.7616	-4.83398	-2.61841	-7.85522
0.787	-30.2124	-6.84814	-0.30212	-3.32336	-13.89771
0.7875	-28.80249	-8.25806	1.71204	-3.52478	-15.50903
0.788	-24.67346	-6.3446	2.61841	-4.33044	-17.42249
0.7885	-17.42249	-4.53186	3.62549	-5.94177	-22.45789
0.789	-11.88354	-3.32336	3.22266	2.81982	-18.02673
0.7895	-6.84814	2.11487	0.80566	-4.33044	-24.47205
0.79	-6.04248	-1.10779	2.5177	-0.10071	-25.47913
0.7905	1.3092	9.66797	-1.81274	-2.31628	-19.33594
0.791	8.66089	8.8623	-0.90637	-6.54602	-23.56567
0.7915	14.40125	11.88354	3.52478	-2.41699	-17.92603
0.792	18.42957	9.86938	1.40991	-0.20142	-21.95435
0.7925	20.44373	13.09204	-0.60425	-5.53894	-20.94727
0.793	29.70886	12.5885	-0.70496	-0.10071	-21.65222
0.7935	28.39966	11.88354	-0.50354	-1.51062	-14.09912
0.794	32.42798	8.7616	-4.22974	-5.84106	-13.89771
0.7945	31.52161	15.40833	-1.10779	-8.25806	-7.75452
0.795	30.11169	8.25806	3.02124	-2.92053	-0.10071
0.7955	26.48621	9.36584	5.0354	-1.00708	1.61133
0.796	28.70178	8.96301	-3.7262	-3.92761	1.3092
0.7965	27.29187	7.75452	-4.93469	-4.63257	3.42407
0.797	29.70886	5.33752	-3.02124	-3.8269	9.66797
0.7975	20.64514	8.8623	-3.52478	-5.74036	17.22107
0.798	15.50903	4.83398	-6.54602	-11.58142	18.02673
0.7985	5.63965	1.81274	-7.65381	-4.12903	20.64514
0.799	-0.80566	-5.84106	-10.57434	-4.93469	21.55151
0.7995	-1.3092	-14.90479	-4.93469	-2.5177	23.16284
0.8	0.30212	-7.65381	-6.14319	-3.7262	27.29187
0.8005	-6.3446	-6.94885	1.91345	-2.31628	15.20691
0.801	-10.57434	-15.1062	0.60425	-2.92053	15.60974
0.8015	-15.81116	-16.41541	-8.56018	2.11487	15.60974
0.802	-21.04797	-17.32178	-6.94885	1.00708	19.33594
0.8025	-31.01807	-13.49487	-2.31628	-4.12903	22.6593
0.803	-37.66479	-17.22107	-4.33044	2.41699	10.67505
0.8035	-37.46338	-12.68921	-2.71912	-0.10071	14.19983
0.804	-37.96692	-11.98425	-1.10779	7.45239	12.99133
0.8045	-41.4917	-14.09912	-4.33044	5.74036	6.14319
0.805	-39.37683	-17.6239	-3.12195	2.5177	5.33752
0.8055	-38.57117	-17.01965	-3.42407	4.12903	2.92053
0.806	-30.51453	-16.3147	-5.33752	5.0354	-4.33044
0.8065	-36.15417	-9.56726	5.23682	6.54602	-2.5177
0.807	-30.01099	-7.85522	2.92053	-0.40283	-7.65381
0.8075	-27.49329	-8.7616	2.11487	0.50354	-11.17859
0.808	-19.94019	-6.44531	0.30212	5.33752	-18.63098
0.8085	-14.19983	-3.12195	5.33752	-1.51062	-19.03381
0.809	-14.40125	-1.2085	2.92053	-0.40283	-19.94019
0.8095	-3.12195	-7.35168	-1.40991	0.70496	-20.44373
0.81	3.42407	-6.3446	3.8269	-0.50354	-20.24231
0.8105	7.15027	-0.40283	1.00708	-4.53186	-23.26355
0.811	12.68921	2.92053	6.54602	3.22266	-24.06921
0.8115	15.40833	5.33752	-0.10071	-3.22266	-22.15576
0.812	23.26355	6.84814	-10.57434	-0.10071	-23.46497
0.8125	24.77417	11.58142	-2.5177	-0.90637	-14.90479
0.813	25.47913	7.35168	3.32336	-0.80566	-17.01965
0.8135	31.92444	9.46655	-3.8269	-3.52478	-11.17859
0.814	39.98108	9.36584	-1.51062	-1.51062	-9.66797
0.8145	32.02515	10.57434	-5.74036	0.60425	-7.04956
0.815	31.92444	7.5531	-0.90637	-0.80566	-2.41699
0.8155	34.94568	9.66797	1.2085	-0.90637	1.51062
0.816	31.32019	11.68213	-7.85522	-1.91345	1.3092
0.8165	27.99683	2.11487	-6.14319	-5.43823	8.05664
0.817	22.96143	4.12903	-0.20142	-1.10779	4.12903
0.8175	17.6239	4.43115	-1.91345	-0.10071	5.23682
0.818	16.81824	4.02832	3.7262	-4.53186	11.58142
0.8185	8.15735	1.91345	-2.31628	-2.5177	17.72461
0.819	-3.02124	-7.75452	-2.01416	-4.12903	19.43665
0.8195	-3.92761	-6.3446	-2.61841	4.12903	22.35718
0.82	-11.38	-6.54602	-0.70496	-4.63257	21.04797
0.8205	-11.2793	-5.63965	-1.71204	4.53186	21.45081
0.821	-13.39417	-13.19275	3.02124	-3.7262	18.42957
0.8215	-20.54443	-10.77576	-1.71204	-3.52478	20.44373
0.822	-25.177	-9.36584	-0.30212	3.22266	16.81824
0.8225	-32.93152	-15.91187	0.70496	1.2085	17.22107
0.823	-39.57825	-16.41541	-4.63257	-3.12195	16.21399
0.8235	-36.55701	-17.22107	-1.61133	0.50354	13.39417
0.824	-32.52869	-19.13452	3.7262	-2.92053	8.15735
0.8245	-29.60815	-8.96301	-8.35876	1.61133	9.76868
0.825	-33.33435	-15.91187	-7.15027	-0.10071	-3.32336
0.8255	-35.95276	-12.08496	-0.80566	-7.5531	-0.10071
0.826	-32.32727	-18.02673	-0.10071	-5.33752	-5.94177
0.8265	-37.36267	-9.86938	-6.74744	0.60425	-6.64673
0.827	-35.14709	-9.56726	-3.92761	6.54602	-6.3446
0.8275	-37.16125	-4.63257	-0.50354	4.33044	-6.74744
0.828	-26.18408	-0.60425	-5.13611	2.21558	-12.5885
0.8285	-18.8324	-1.61133	-0.60425	2.71912	-16.61682
0.829	-10.57434	2.11487	-5.0354	-3.12195	-21.65222
0.8295	-4.43115	2.21558	0.50354	-0.70496	-19.43665
0.83	2.71912	2.31628	12.99133	-1.71204	-27.6947
0.8305	-1.40991	4.33044	0.80566	-10.37292	-24.06921
0.831	7.5531	2.92053	7.35168	3.92761	-18.12744
0.8315	15.30762	7.95593	1.10779	-6.74744	-25.37842
0.832	12.28638	15.00549	7.45239	-3.62549	-20.24231
0.8325	15.20691	10.97717	6.14319	2.11487	-28.70178
0.833	20.54443	12.18567	9.16443	-2.71912	-24.16992
0.8335	24.77417	16.21399	3.62549	0.90637	-14.09912
0.834	24.97559	15.40833	2.71912	-3.02124	-13.49487
0.8345	24.27063	11.68213	4.22974	-2.41699	-10.67505
0.835	25.68054	9.36584	-3.92761	0.70496	-3.12195
0.8355	32.7301	6.14319	-3.22266	-3.52478	-2.71912
0.836	36.35559	2.5177	-3.8269	-4.33044	2.61841
0.8365	39.98108	-6.64673	-3.7262	-6.94885	2.5177
0.837	31.72302	-1.2085	-2.92053	-5.33752	7.45239
0.8375	32.42798	-2.11487	-0.60425	-6.74744	9.06372
0.838	13.19275	-0.10071	-4.12903	0.70496	13.09204
0.8385	7.75452	-4.12903	2.61841	-1.71204	16.91895
0.839	4.63257	-9.66797	2.61841	1.40991	14.80408
0.8395	-1.40991	-5.84106	-2.21558	2.11487	20.94727
0.84	-5.53894	-0.30212	1.40991	3.42407	21.75293
0.8405	-9.86938	-3.7262	-0.10071	2.5177	24.16992
0.841	-17.12036	-8.45947	7.35168	0.70496	24.47205
0.8415	-16.71753	-11.2793	-0.10071	-0.30212	14.30054
0.842	-30.91736	-16.01257	-1.3092	-1.81274	28.29895
0.8425	-31.01807	-19.73877	0.10071	0.60425	15.30762
0.843	-33.33435	-17.92603	0.80566	-0.90637	6.84814
0.8435	-35.75134	-23.66638	-0.70496	5.63965	11.78284
0.844	-38.974	-18.42957	-0.30212	1.00708	4.02832
0.8445	-40.38391	-20.04089	-0.90637	-0.50354	1.40991
0.845	-39.07471	-17.6239	3.62549	4.33044	-1.91345
0.8455	-33.53577	-21.65222	-1.00708	-4.12903	-7.75452
0.846	-27.29187	-20.74585	-6.64673	0.70496	-4.22974
0.8465	-34.94568	-19.53735	-0.10071	0.30212	-0.50354
0.847	-30.41382	-14.30054	0.10071	1.00708	-9.46655
0.8475	-21.3501	-17.52319	-4.12903	-4.53186	-12.38708
0.848	-20.44373	-8.25806	-5.63965	0	-12.68921
0.8485	-11.78284	-11.17859	-3.7262	-1.51062	-19.13452
0.849	-5.13611	-3.92761	-0.30212	-0.50354	-21.3501
0.8495	6.54602	-1.91345	-0.60425	0.50354	-19.63806
0.85	2.5177	-1.3092	-1.3092	-1.3092	-17.52319
0.8505	6.94885	3.8269	-7.65381	-0.30212	-22.15576
0.851	17.42249	1.61133	-4.12903	3.7262	-22.05505
0.8515	13.59558	5.23682	-7.35168	1.91345	-22.86072
0.852	23.56567	5.0354	-0.20142	-0.50354	-23.26355
0.8525	28.09753	7.75452	-4.33044	0.90637	-24.87488
0.853	23.46497	15.60974	-1.10779	5.53894	-13.99841
0.8535	30.51453	16.3147	-3.32336	-2.01416	-14.90479
0.854	25.68054	14.90479	-1.91345	-2.5177	-12.18567
0.8545	28.70178	12.38708	0.30212	-6.94885	-5.33752
0.855	27.39258	5.63965	-0.40283	-2.81982	-4.53186
0.8555	28.70178	4.33044	-1.91345	-3.12195	2.5177
0.856	28.39966	6.14319	4.83398	1.61133	5.13611
0.8565	25.98267	14.90479	-0.30212	-2.5177	3.02124
0.857	24.27063	11.88354	3.22266	-5.33752	0.30212
0.8575	13.19275	1.00708	-1.51062	-3.32336	10.0708
0.858	13.09204	6.84814	0.90637	-1.71204	9.76868
0.8585	7.5531	-4.73328	0.50354	-3.8269	12.38708
0.859	-2.21558	-4.73328	-1.51062	-0.70496	23.46497
0.8595	-9.16443	-0.10071	-2.5177	-5.13611	19.83948
0.86	-8.8623	-9.16443	3.12195	-2.5177	22.05505
0.8605	-9.16443	-5.23682	-0.10071	-2.41699	23.46497
0.861	-13.09204	-6.94885	1.81274	-4.22974	23.06213
0.8615	-24.67346	-10.97717	-0.70496	2.31628	22.25647
0.862	-24.06921	-16.41541	-1.51062	2.41699	20.44373
0.8625	-36.35559	-7.35168	-3.52478	2.31628	20.44373
0.863	-40.48462	-14.09912	-0.10071	-0.10071	11.98425
0.8635	-41.18958	-15.20691	-0.10071	-0.30212	11.2793
0.864	-42.39807	-18.53027	2.92053	-2.31628	4.33044
0.8645	-41.29028	-10.77576	-7.45239	-3.12195	7.15027
0.865	-42.8009	-15.40833	-3.02124	5.33752	1.2085
0.8655	-34.84497	-14.90479	-0.50354	2.01416	-0.70496
0.866	-34.54285	-12.68921	-1.51062	0.10071	-7.95593
0.8665	-28.70178	-15.50903	-7.35168	4.53186	-9.16443
0.867	-25.98267	-15.30762	-2.21558	3.52478	-10.77576
0.8675	-19.94019	-10.97717	-0.50354	0.50354	-15.50903
0.868	-13.797	-11.88354	-0.30212	2.31628	-17.12036
0.8685	-9.66797	-9.46655	-2.71912	-1.71204	-21.95435
0.869	-3.52478	-4.53186	0.10071	-3.32336	-23.66638
0.8695	-1.51062	0.70496	-1.61133	0.70496	-21.95435
0.87	1.2085	5.33752	-0.90637	-2.01416	-21.95435
0.8705	6.74744	5.53894	-2.11487	-4.12903	-21.95435
0.871	10.37292	5.33752	-3.32336	-3.02124	-21.95435
0.8715	15.50903	7.85522	-4.02832	1.61133	-21.95435
0.872	17.12036	11.17859	2.61841	0.20142	-21.95435
0.8725	24.67346	5.53894	-2.31628	-4.63257	-21.95435
0.873	28.60107	10.97717	3.42407	-1.00708	-21.95435
0.8735	34.84497	11.98425	-1.51062	1.10779	-21.95435
0.874	29.70886	17.32178	-2.71912	2.21558	-21.95435
0.8745	31.11877	4.93469	-3.7262	-1.71204	-21.95435
0.875	22.15576	10.97717	-1.3092	-1.81274	-21.95435
0.8755	25.37842	9.66797	3.7262	-2.5177	-21.95435
0.876	19.03381	6.94885	-0.90637	-2.71912	-21.95435
0.8765	26.18408	5.43823	-1.40991	-0.30212	-21.95435
0.877	22.76001	9.97009	-4.73328	-5.53894	11.38
0.8775	22.6593	2.41699	-1.40991	-3.7262	9.76868
0.878	20.04089	2.61841	-3.92761	-2.01416	13.99841
0.8785	13.09204	4.22974	-1.40991	-1.81274	19.03381
0.879	2.31628	-0.90637	-6.2439	-1.10779	19.23523
0.8795	-4.33044	-3.12195	-7.65381	-1.3092	22.55859
0.88	-9.97009	-5.84106	-5.13611	-4.02832	17.42249
0.8805	-16.81824	-14.70337	-1.40991	0	16.71753
0.881	-21.3501	-12.78992	0	2.92053	21.85364
0.8815	-23.26355	-13.797	-0.10071	-4.33044	18.22815
0.882	-31.62231	-15.1062	3.22266	7.15027	22.25647
0.8825	-31.72302	-17.22107	-3.42407	3.42407	10.27222
0.883	-33.9386	-19.94019	-8.35876	-4.02832	15.1062
0.8835	-35.75134	-19.03381	-4.43115	1.71204	12.08496
0.884	-34.14001	-17.01965	-4.53186	-2.5177	7.85522
0.8845	-33.13293	-18.02673	-6.3446	-6.2439	18.8324
0.885	-33.9386	-19.33594	-1.10779	-3.32336	4.53186
0.8855	-35.14709	-18.63098	-7.15027	-1.51062	0.80566
0.886	-34.64355	-17.22107	1.10779	1.10779	-6.74744
0.8865	-30.2124	-12.89062	-3.12195	1.00708	-3.92761
0.887	-24.97559	-10.77576	-2.92053	3.92761	-12.18567
0.8875	-26.3855	-14.40125	5.33752	-0.70496	-9.46655
0.888	-11.17859	-8.96301	-3.62549	-6.44531	-21.14868
0.8885	-15.30762	-1.71204	0.10071	5.43823	-16.51611
0.889	-5.53894	-1.2085	-0.90637	0.70496	-28.39966
0.8895	-6.04248	-2.71912	-2.5177	-0.10071	-25.177
0.89	4.93469	-5.23682	-1.51062	-4.83398	-24.77417
0.8905	4.33044	5.33752	-4.33044	-9.36584	-22.05505
0.891	12.68921	5.84106	-0.10071	-3.7262	-16.3147
0.8915	11.38	13.59558	-1.61133	-6.04248	-16.61682
0.892	20.64514	11.17859	-4.73328	-5.84106	-25.07629
0.8925	26.88904	18.73169	5.13611	-5.94177	-23.36426
0.893	31.92444	13.797	1.10779	-3.42407	-23.26355
0.8935	30.51453	18.32886	-4.93469	-5.63965	-21.24939
0.894	29.10461	16.91895	2.41699	-11.38	-15.60974
0.8945	28.09753	15.40833	0.50354	0.50354	-8.96301
0.895	25.88196	15.1062	1.10779	-4.63257	-5.84106
0.8955	19.94019	12.28638	-1.61133	-5.33752	-2.5177
0.896	25.88196	11.68213	3.52478	2.92053	2.61841
0.8965	25.78125	12.89062	2.31628	-2.5177	5.53894
0.897	24.77417	9.36584	-0.10071	-5.53894	8.25806
0.8975	18.8324	13.797	1.40991	-9.56726	10.57434
0.898	21.45081	11.48071	1.61133	-3.92761	18.02673
0.8985	7.15027	6.94885	1.3092	1.00708	15.00549
0.899	-2.21558	1.51062	1.71204	-3.02124	21.14868
0.8995	-8.05664	-6.3446	0.30212	-4.63257	19.33594
0.9	-11.07788	-7.15027	0.50354	-2.92053	19.13452
0.9005	-11.17859	-3.52478	-1.91345	0.70496	26.58691
0.901	-7.95593	-8.66089	-3.52478	-0.10071	21.95435
0.9015	-17.92603	-13.29346	-3.12195	-1.2085	18.42957
0.902	-25.98267	-8.25806	-1.91345	0.30212	16.81824
0.9025	-35.14709	-17.01965	-6.14319	0.60425	13.797
0.903	-41.39099	-16.61682	-9.16443	0.30212	11.78284
0.9035	-38.974	-16.81824	-7.95593	0.60425	5.94177
0.904	-37.66479	-9.36584	-1.51062	3.62549	10.37292
0.9045	-36.05347	-14.19983	-2.11487	3.32336	7.15027
0.905	-38.974	-20.64514	-11.48071	3.62549	1.61133
0.9055	-37.26196	-16.01257	0	3.02124	4.12903
0.906	-36.75842	-17.42249	-2.5177	0.80566	0.10071
0.9065	-35.04639	-17.12036	-2.92053	-0.70496	-9.16443
0.907	-32.83081	-10.57434	-5.33752	-0.20142	-5.84106
0.9075	-22.45789	-5.94177	-7.45239	-3.02124	-10.57434
0.908	-16.91895	-10.77576	-8.7616	0.10071	-15.00549
0.9085	-12.5885	-9.46655	-5.23682	-1.71204	-22.45789
0.909	-9.06372	-12.5885	-4.73328	-0.30212	-24.37134
0.9095	-2.01416	-3.22266	-5.0354	-2.92053	-23.26355
0.91	-1.40991	-1.10779	-7.45239	2.21558	-20.74585
0.9105	5.74036	-2.41699	-8.96301	0.10071	-22.86072
0.911	15.20691	1.61133	0.70496	1.81274	-23.8678
0.9115	18.32886	4.73328	-4.22974	-4.63257	-27.29187
0.912	25.78125	5.94177	-3.12195	-8.96301	-23.26355
0.9125	34.44214	9.16443	2.5177	-6.04248	-17.01965
0.913	30.61523	7.85522	0	-3.22266	-15.81116
0.9135	33.63647	15.20691	2.71912	-4.73328	-10.87646
0.914	30.61523	14.40125	-2.31628	-3.12195	-12.18567
0.9145	34.94568	13.797	1.51062	-4.73328	-10.67505
0.915	27.49329	9.16443	2.31628	-2.21558	-8.66089
0.9155	33.33435	7.15027	3.92761	-7.15027	0.50354
0.916	16.91895	2.92053	5.74036	-4.43115	-0.70496
0.9165	24.37134	2.5177	0.40283	-3.62549	3.52478
0.917	22.25647	3.52478	3.42407	-14.09912	7.5531
0.9175	20.1416	2.81982	0.60425	-2.21558	14.60266
0.918	10.97717	-0.10071	1.00708	1.61133	13.39417
0.9185	4.93469	-9.36584	0.30212	-2.41699	11.68213
0.919	-0.60425	0	0.30212	-9.97009	13.89771
0.9195	-5.43823	-1.91345	0.30212	-0.90637	10.57434
0.92	-11.2793	2.31628	0.30212	-0.70496	15.50903
0.9205	-10.77576	-6.84814	0.30212	-6.44531	22.15576
0.921	-18.63098	-2.11487	0.30212	-3.02124	21.85364
0.9215	-24.16992	-13.19275	0.30212	1.71204	20.24231
0.922	-35.34851	-14.30054	0.30212	1.10779	18.93311
0.9225	-35.2478	-15.00549	0.30212	-2.61841	21.3501
0.923	-41.18958	-10.47363	0.30212	7.5531	16.01257
0.9235	-51.66321	-5.74036	0.30212	3.8269	11.68213
0.924	-38.77258	-5.94177	0.30212	6.94885	7.75452
0.9245	-39.27612	-12.28638	0.30212	3.12195	3.42407
0.925	-44.0094	-9.56726	0.30212	2.01416	3.92761
0.9255	-31.72302	-17.72461	0.30212	-4.33044	2.92053
0.926	-27.89612	-20.04089	0.90637	-0.20142	-4.43115
0.9265	-21.14868	-38.06763	-2.21558	-2.71912	-4.43115
0.927	-22.86072	-23.8678	0.90637	-2.61841	-9.66797
0.9275	-16.81824	-15.71045	-0.30212	1.10779	-12.89062
0.928	-9.66797	-14.19983	2.92053	1.40991	-13.49487
0.9285	-14.80408	-5.43823	4.53186	0.50354	-8.45947
0.929	-2.21558	2.21558	-2.31628	3.52478	-23.8678
0.9295	-4.53186	5.43823	-2.11487	-3.52478	-23.76709
0.93	0.40283	-1.10779	1.10779	-4.93469	-20.84656
0.9305	8.96301	2.71912	0.70496	-8.15735	-25.27771
0.931	9.16443	5.23682	-2.61841	-3.22266	-21.65222
0.9315	17.72461	-0.10071	2.61841	-3.8269	-21.24939
0.932	21.55151	5.43823	1.3092	-2.31628	-25.78125
0.9325	26.98975	5.33752	2.5177	1.10779	-20.84656
0.933	26.08337	15.1062	3.02124	-3.92761	-20.24231
0.9335	32.52869	7.5531	-4.12903	-1.91345	-12.28638
0.934	32.42798	12.38708	1.10779	1.40991	-12.18567
0.9345	28.39966	11.48071	5.94177	-3.52478	-2.61841
0.935	32.02515	8.56018	4.43115	-8.56018	-1.81274
0.9355	35.2478	12.38708	3.62549	-6.3446	3.32336
0.936	20.1416	3.32336	2.5177	-3.02124	1.2085
0.9365	24.97559	10.97717	3.32336	-2.31628	3.02124
0.937	24.87488	10.37292	2.11487	-1.00708	9.56726
0.9375	16.51611	8.66089	5.53894	-0.50354	8.45947
0.938	15.60974	1.81274	2.92053	-5.13611	8.8623
0.9385	6.14319	-5.0354	-1.51062	-2.31628	12.38708
0.939	5.53894	-5.53894	-1.71204	-5.94177	19.83948
0.9395	-1.10779	-4.93469	-3.02124	-2.01416	19.13452
0.94	-3.92761	-8.7616	-6.64673	3.62549	19.03381
0.9405	-6.74744	-13.59558	-3.92761	3.02124	17.82532
0.941	-12.18567	-15.40833	0	-4.63257	21.95435
0.9415	-16.51611	-13.39417	-3.32336	-3.7262	16.91895
0.942	-23.26355	-18.22815	-5.94177	-0.80566	16.71753
0.9425	-29.20532	-23.96851	-2.21558	3.8269	16.91895
0.943	-31.82373	-21.24939	-7.5531	3.7262	20.44373
0.9435	-35.2478	-19.43665	-5.0354	10.27222	26.58691
0.944	-37.7655	-19.13452	-10.47363	0.40283	9.66797
0.9445	-36.55701	-18.8324	-8.96301	4.93469	4.12903
0.945	-32.12585	-21.95435	-11.07788	2.92053	-0.50354
0.9455	-31.01807	-15.1062	-5.43823	-2.31628	-1.10779
0.946	-32.32727	-17.42249	-8.96301	1.71204	-0.40283
0.9465	-34.74426	-16.01257	-7.75452	-0.40283	-4.53186
0.947	-28.19824	-18.02673	-5.74036	-1.51062	-7.95593
0.9475	-29.91028	-9.06372	-8.56018	1.91345	-10.97717
0.948	-14.30054	-16.11328	-7.04956	2.92053	-15.91187
0.9485	-8.45947	-8.7616	-10.37292	-1.71204	-18.22815
0.949	-1.3092	-9.97009	-13.39417	-1.51062	-29.20532
0.9495	-0.90637	-8.45947	-4.12903	-2.92053	-24.37134
0.95	4.63257	-0.10071	1.91345	-5.23682	-22.86072
0.9505	6.84814	6.54602	7.65381	-2.31628	-23.66638
0.951	6.2439	2.92053	6.64673	-5.43823	-25.47913
0.9515	9.26514	7.35168	5.0354	-11.17859	-21.14868
0.952	18.63098	8.15735	3.52478	-10.27222	-26.48621
0.9525	24.27063	16.21399	7.35168	-6.54602	-17.92603
0.953	29.91028	19.53735	5.23682	-9.16443	-19.94019
0.9535	25.07629	18.32886	4.53186	-2.5177	-18.42957
0.954	22.96143	18.63098	1.81274	-3.52478	-16.61682
0.9545	26.18408	15.30762	8.35876	-8.35876	-6.04248
0.955	17.82532	11.78284	5.94177	-10.27222	-2.31628
0.9555	26.18408	19.03381	7.5531	-3.12195	-0.10071
0.956	25.68054	18.8324	5.74036	-4.12903	1.2085
0.9565	13.39417	12.68921	6.44531	-2.01416	-0.30212
0.957	25.47913	11.78284	-3.02124	-4.93469	2.61841
0.9575	18.22815	5.13611	-0.70496	-3.22266	10.97717
0.958	9.76868	2.31628	0.50354	-2.81982	20.04089
0.9585	8.25806	-0.70496	0.10071	5.94177	21.65222
0.959	-3.52478	-2.21558	9.36584	2.5177	21.14868
0.9595	-6.44531	-4.93469	1.91345	0.50354	17.01965
0.96	-7.75452	-11.58142	-3.52478	3.7262	18.42957
0.9605	-13.49487	-11.07788	-3.02124	-4.33044	23.26355
0.961	-13.39417	-9.46655	-5.13611	-0.30212	19.23523
0.9615	-17.42249	-13.59558	-4.33044	2.61841	16.91895
0.962	-21.45081	-19.83948	-5.13611	-5.43823	17.42249
0.9625	-31.82373	-20.24231	-4.12903	-5.43823	16.11328
0.963	-33.9386	-17.42249	-3.02124	2.71912	12.48779
0.9635	-36.65771	-20.54443	2.11487	-2.31628	10.97717
0.964	-31.62231	-15.40833	1.40991	-0.70496	1.71204
0.9645	-38.26904	-11.48071	-1.2085	2.11487	3.62549
0.965	-37.26196	-15.30762	-2.71912	2.21558	-1.81274
0.9655	-38.16833	-14.40125	-6.3446	-0.10071	-7.95593
0.966	-35.85205	-13.39417	-7.04956	-4.22974	-1.40991
0.9665	-31.82373	-19.23523	-3.52478	-1.91345	-7.04956
0.967	-30.91736	-18.42957	-1.91345	-1.3092	-8.96301
0.9675	-26.18408	-16.51611	-1.71204	-2.31628	-10.77576
0.968	-14.90479	-11.17859	-0.90637	0.70496	-18.32886
0.9685	-11.98425	-6.14319	-2.71912	-0.10071	-17.22107
0.969	-11.68213	-4.43115	-3.62549	3.42407	-24.27063
0.9695	6.2439	1.2085	-9.36584	-4.12903	-19.33594
0.97	5.53894	0.10071	-2.81982	-8.7616	-19.94019
0.9705	8.56018	3.62549	2.5177	-2.11487	-21.85364
0.971	3.92761	-0.60425	-3.52478	3.42407	-20.44373
0.9715	11.48071	9.16443	-5.33752	-4.33044	-13.49487
0.972	23.56567	11.07788	-2.31628	-2.41699	-20.34302
0.9725	25.27771	10.57434	2.92053	-7.15027	-19.94019
0.973	31.32019	11.17859	-3.8269	-6.2439	-14.60266
0.9735	34.94568	7.25098	3.42407	-11.17859	-16.01257
0.974	29.70886	17.22107	2.21558	-2.5177	-10.47363
0.9745	23.46497	10.87646	8.7616	0.30212	-8.15735
0.975	30.31311	10.97717	0.30212	-5.94177	-11.58142
0.9755	25.37842	10.37292	-0.90637	-0.10071	-5.74036
0.976	26.88904	6.84814	4.43115	-3.42407	-0.50354
0.9765	26.78833	11.07788	3.32336	-4.43115	8.96301
0.977	22.86072	13.797	-1.51062	0.20142	3.7262
0.9775	18.02673	7.25098	-4.43115	-1.10779	13.69629
0.978	14.60266	2.92053	-2.71912	-2.31628	8.05664
0.9785	3.92761	-3.92761	-6.54602	-6.3446	15.81116
0.979	1.3092	-2.81982	-4.73328	-1.00708	20.04089
0.9795	-3.02124	-6.74744	-5.53894	-1.81274	18.73169
0.98	-10.57434	-9.97009	-6.2439	-1.10779	15.60974
0.9805	-14.80408	-11.58142	-6.04248	-2.5177	18.02673
0.981	-17.52319	-7.04956	-6.54602	2.21558	18.02673
0.9815	-24.67346	-18.42957	-1.3092	5.33752	18.22815
0.982	-31.21948	-13.69629	-2.41699	-0.10071	16.91895
0.9825	-34.34143	-20.44373	-5.43823	-1.51062	10.17151
0.983	-33.53577	-15.60974	-3.02124	0.10071	12.18567
0.9835	-36.95984	-18.22815	-2.5177	1.61133	13.49487
0.984	-36.75842	-14.19983	-5.13611	1.71204	9.76868
0.9845	-42.49878	-18.8324	-1.10779	3.42407	4.22974
0.985	-37.66479	-11.98425	-8.05664	-0.30212	-0.80566
0.9855	-33.33435	-13.49487	-0.50354	-5.43823	-0.30212
0.986	-30.51453	-10.37292	-7.04956	-6.84814	-7.95593
0.9865	-30.51453	-10.17151	-8.25806	0.20142	-8.66089
0.987	-26.98975	-3.92761	-4.73328	0.80566	-14.60266
0.9875	-27.79541	-9.16443	-0.30212	-4.12903	-18.32886
0.988	-21.24939	-8.15735	-1.71204	0	-21.14868
0.9885	-11.98425	-6.54602	-2.61841	0.70496	-24.47205
0.989	-7.04956	-2.5177	4.83398	-4.93469	-24.97559
0.9895	-0.80566	0.40283	0.20142	0.50354	-27.89612
0.99	6.14319	4.33044	-5.13611	6.54602	-21.85364
0.9905	11.58142	5.63965	2.71912	-0.60425	-26.28479
0.991	13.797	6.3446	-3.7262	-0.30212	-30.51453
0.9915	10.37292	9.36584	1.10779	0.50354	-25.68054
0.992	18.73169	9.76868	0.70496	-2.21558	-26.68762
0.9925	26.68762	15.20691	0.20142	-0.30212	-22.86072
0.993	25.98267	14.50195	1.81274	3.92761	-17.22107
0.9935	28.70178	10.77576	2.41699	-1.61133	-18.32886
0.994	30.91736	13.797	0.90637	-7.45239	-11.2793
0.9945	31.11877	13.69629	3.52478	-9.56726	-10.27222
0.995	31.72302	11.68213	-3.12195	-4.12903	-6.74744
0.9955	31.21948	12.48779	-4.73328	-2.92053	-6.44531
0.996	29.70886	8.25806	-6.3446	2.5177	-2.92053
0.9965	26.88904	4.33044	4.02832	-1.91345	2.11487
0.997	30.41382	4.22974	2.92053	-2.5177	2.41699
0.9975	17.82532	13.39417	-2.41699	-2.01416	8.8623
0.998	12.68921	7.35168	-1.10779	0.80566	16.11328
0.9985	8.96301	-0.90637	-0.90637	0.30212	22.15576
0.999	2.71912	0.30212	0.20142	0.10071	27.29187
0.9995	-1.81274	-9.56726	0.90637	-0.60425	20.64514
1	-9.06372	-4.22974	-5.23682	-1.51062	23.16284
1.0005	-11.98425	-3.92761	2.11487	-0.10071	19.83948
1.001	-14.90479	-6.74744	2.92053	-1.10779	19.23523
1.0015	-21.45081	-13.69629	5.23682	1.3092	22.6593
1.002	-34.84497	-6.04248	0.70496	-0.10071	18.42957
1.0025	-32.83081	-13.29346	-0.30212	4.83398	18.32886
1.003	-31.52161	-12.18567	-5.53894	2.01416	15.81116
1.0035	-39.57825	-17.01965	-3.52478	0.70496	8.35876
1.004	-36.05347	-17.42249	-2.5177	5.63965	10.87646
1.0045	-38.36975	-20.84656	-1.51062	-1.3092	9.36584
1.005	-36.55701	-13.29346	-3.32336	-3.02124	0.70496
1.0055	-34.24072	-18.8324	0.30212	-1.40991	-1.51062
1.006	-33.9386	-10.57434	-2.5177	-8.05664	-1.10779
1.0065	-33.73718	-6.3446	-0.10071	-3.02124	-5.33752
1.007	-30.31311	-16.21399	-0.30212	4.22974	-7.85522
1.0075	-23.46497	-11.78284	0.10071	3.12195	-9.86938
1.008	-18.22815	-9.56726	4.12903	7.15027	-20.74585
1.0085	-13.59558	-2.31628	3.22266	0.30212	-17.6239
1.009	-5.63965	-3.42407	-0.90637	-7.5531	-23.96851
1.0095	-3.92761	-3.92761	0.40283	-3.02124	-20.64514
1.01	2.5177	0.10071	3.02124	-0.60425	-16.81824
1.0105	6.94885	1.61133	-3.02124	0.30212	-23.06213
1.011	11.38	-0.90637	-3.52478	2.11487	-20.74585
1.0115	16.51611	7.75452	-3.12195	-3.62549	-15.71045
1.012	19.23523	9.97009	-0.60425	-6.94885	-23.36426
1.0125	25.177	8.15735	2.21558	2.31628	-22.35718
1.013	25.27771	6.14319	1.00708	-3.12195	-16.11328
1.0135	30.01099	9.26514	1.10779	2.81982	-14.30054
1.014	39.77966	8.56018	-3.12195	-6.44531	-17.32178
1.0145	30.91736	6.14319	3.7262	-5.33752	-11.88354
1.015	32.93152	13.19275	1.81274	2.01416	-6.74744
1.0155	28.39966	8.96301	1.91345	-4.12903	-5.33752
1.016	31.92444	5.94177	0.40283	-1.91345	2.31628
1.0165	24.47205	13.39417	1.61133	2.61841	4.93469
1.017	22.86072	0.70496	-0.50354	-3.12195	7.85522
1.0175	23.56567	6.64673	6.3446	0.10071	10.47363
1.018	12.68921	1.71204	3.12195	0.70496	13.39417
1.0185	6.94885	-1.81274	3.92761	1.2085	17.22107
1.019	1.71204	0.10071	4.12903	1.61133	17.92603
1.0195	-4.73328	-3.8269	-5.63965	-2.92053	18.73169
1.02	-4.33044	-3.12195	-3.42407	1.3092	20.74585
1.0205	-11.48071	-12.48779	-3.92761	0.10071	20.64514
1.021	-15.40833	-12.18567	-6.14319	3.22266	23.66638
1.0215	-15.30762	-12.38708	-6.64673	-0.60425	18.12744
1.022	-27.49329	-9.97009	-3.42407	0.50354	24.47205
1.0225	-37.86621	-8.7616	1.40991	-2.21558	18.42957
1.023	-37.36267	-10.37292	-3.7262	-1.91345	13.39417
1.0235	-46.42639	-6.74744	-1.40991	1.51062	13.09204
1.024	-41.59241	-13.39417	-0.60425	-0.30212	11.58142
1.0245	-46.02356	-19.13452	7.35168	0.90637	8.35876
1.025	-37.16125	-18.02673	3.7262	4.33044	-0.50354
1.0255	-37.96692	-10.57434	1.61133	-3.42407	3.02124
1.026	-34.14001	-13.19275	-2.61841	3.52478	-5.13611
1.0265	-32.7301	-8.7616	8.15735	-1.91345	-4.53186
1.027	-30.11169	-9.36584	2.31628	2.71912	-13.797
1.0275	-32.52869	-9.76868	3.7262	3.62549	-13.99841
1.028	-25.98267	-3.02124	5.23682	0.80566	-13.797
1.0285	-19.63806	0.10071	4.02832	-4.53186	-21.55151
1.029	-13.797	0.10071	2.11487	-2.71912	-23.76709
1.0295	-6.64673	-4.33044	4.93469	-0.20142	-21.75293
1.03	-4.33044	-1.00708	-0.80566	-0.40283	-25.07629
1.0305	7.5531	2.5177	-0.70496	-3.7262	-19.33594
1.031	13.69629	8.45947	-0.20142	-3.92761	-24.27063
1.0315	17.22107	7.15027	5.33752	-9.36584	-24.67346
1.032	17.42249	10.57434	4.33044	-1.40991	-21.45081
1.0325	23.8678	13.59558	1.71204	-2.31628	-25.88196
1.033	27.89612	12.38708	3.8269	2.01416	-15.1062
1.0335	34.14001	7.65381	-0.30212	-2.5177	-13.99841
1.034	32.93152	14.40125	-3.7262	-2.92053	-12.68921
1.0345	35.95276	14.30054	-6.14319	-7.5531	-11.17859
1.035	35.65063	15.60974	-3.7262	-2.31628	-4.33044
1.0355	28.09753	15.71045	0.50354	-1.2085	6.84814
1.036	22.76001	16.61682	-1.40991	-1.2085	4.93469
1.0365	20.34302	6.84814	2.61841	0.40283	-0.20142
1.037	14.70337	1.00708	-1.51062	-2.01416	7.85522
1.0375	18.22815	7.95593	-5.43823	-5.74036	9.66797
1.038	11.98425	-2.21558	-4.63257	-2.5177	18.22815
1.0385	4.73328	-2.71912	-3.02124	-1.61133	26.98975
1.039	-0.90637	-0.70496	-0.90637	-0.20142	23.26355
1.0395	-8.96301	-6.14319	-5.33752	4.43115	23.56567
1.04	-11.88354	-5.94177	-9.16443	-2.5177	15.1062
1.0405	-12.08496	-8.45947	-4.33044	2.71912	15.00549
1.041	-12.78992	-9.46655	-3.12195	10.57434	18.8324
1.0415	-20.64514	-13.19275	-2.21558	-0.70496	20.64514
1.042	-22.86072	-8.7616	-4.22974	-0.10071	16.51611
1.0425	-32.52869	-15.00549	-3.8269	1.10779	24.37134
1.043	-32.52869	-10.57434	1.3092	-4.53186	10.57434
1.0435	-37.36267	-12.68921	2.81982	5.84106	13.797
1.044	-38.77258	-15.40833	-4.33044	-1.81274	4.12903
1.0445	-43.30444	-13.19275	-0.50354	2.31628	4.73328
1.045	-42.8009	-19.63806	1.40991	0.80566	2.71912
1.0455	-39.98108	-16.71753	-2.71912	-1.51062	-2.61841
1.046	-38.26904	-14.09912	3.8269	2.92053	-5.13611
1.0465	-36.05347	-13.59558	-0.90637	1.3092	-2.5177
1.047	-30.31311	-10.67505	-2.41699	1.00708	-8.05664
1.0475	-28.50037	-10.37292	-0.80566	2.71912	-12.18567
1.048	-27.6947	-2.71912	-3.7262	4.53186	-12.48779
1.0485	-23.56567	-0.10071	3.22266	4.22974	-16.51611
1.049	-13.49487	-0.80566	6.84814	5.53894	-22.86072
1.0495	-13.59558	1.2085	-3.12195	2.5177	-18.73169
1.05	-4.73328	1.61133	-2.21558	4.63257	-21.04797
1.0505	0.60425	-1.91345	5.74036	-2.21558	-19.63806
1.051	9.36584	2.71912	5.33752	0.20142	-24.87488
1.0515	21.24939	1.71204	-6.44531	-2.41699	-21.24939
1.052	30.31311	0.10071	0.90637	-4.22974	-21.65222
1.0525	34.94568	-6.54602	-5.13611	1.51062	-19.13452
1.053	35.65063	-2.11487	-4.02832	-0.90637	-18.73169
1.0535	39.37683	3.7262	-4.33044	-0.50354	-16.41541
1.054	42.49878	5.13611	0.10071	-3.02124	-9.16443
1.0545	35.44922	2.11487	-1.00708	-3.52478	-6.84814
1.055	27.89612	-0.70496	-2.41699	-0.90637	-6.04248
1.0555	42.8009	2.11487	1.00708	-0.70496	3.62549
1.056	32.52869	-3.52478	-4.02832	-4.12903	2.92053
1.0565	30.01099	2.41699	-6.2439	-5.33752	2.5177
1.057	23.96851	2.21558	-1.91345	-4.22974	6.64673
1.0575	17.12036	4.63257	-9.26514	-2.31628	10.47363
1.058	13.39417	-1.81274	-6.54602	-1.51062	9.97009
1.0585	8.15735	-6.94885	-7.04956	6.44531	20.24231
1.059	2.31628	-1.81274	-10.47363	1.00708	23.06213
1.0595	-3.02124	-4.22974	-10.87646	-0.20142	21.04797
1.06	-10.47363	-6.3446	-7.5531	-1.51062	24.77417
1.0605	-7.5531	-9.36584	-10.37292	0.50354	23.36426
1.061	-21.24939	-6.54602	-7.15027	2.92053	24.47205
1.0615	-27.6947	-7.25098	-1.51062	-0.70496	23.66638
1.062	-41.59241	-6.84814	2.41699	-3.32336	19.23523
1.0625	-50.85754	-11.58142	2.71912	5.94177	19.13452
1.063	-51.05896	-16.11328	3.42407	-0.70496	13.797
1.0635	-48.13843	-16.81824	2.41699	-6.74744	15.20691
1.064	-48.54126	-14.09912	5.53894	-7.45239	1.10779
1.0645	-40.1825	-17.01965	4.33044	-5.13611	-5.74036
1.065	-42.90161	-11.38	3.02124	-8.35876	-2.71912
1.0655	-39.57825	-15.60974	8.45947	-3.7262	-4.33044
1.066	-37.36267	-15.20691	3.02124	-6.04248	-13.797
1.0665	-41.99524	-10.87646	-1.91345	-1.91345	-5.63965
1.067	-33.63647	-6.2439	4.12903	-1.40991	-7.5531
1.0675	-28.60107	-6.64673	0.60425	1.10779	-16.01257
1.068	-25.57983	-3.8269	1.2085	1.51062	-12.18567
1.0685	-20.44373	-5.13611	1.10779	-10.17151	-21.45081
1.069	-13.19275	2.41699	8.15735	-3.7262	-22.76001
1.0695	-7.45239	3.32336	4.93469	-4.43115	-23.76709
1.07	0.90637	4.53186	1.91345	1.2085	-20.64514
1.0705	4.33044	4.83398	-0.50354	0.40283	-24.27063
1.071	12.38708	5.33752	-1.3092	-0.10071	-23.46497
1.0715	17.42249	5.0354	2.11487	-7.15027	-24.47205
1.072	18.8324	5.13611	8.8623	-0.30212	-25.98267
1.0725	27.99683	13.39417	4.73328	-0.90637	-19.73877
1.073	26.18408	14.40125	2.31628	1.91345	-19.83948
1.0735	30.71594	9.86938	-0.10071	-3.12195	-11.58142
1.074	29.40674	13.797	0.50354	-1.91345	-13.797
1.0745	35.44922	3.92761	-2.5177	-2.5177	-6.3446
1.075	28.70178	9.36584	0.30212	-3.92761	-1.91345
1.0755	26.48621	10.77576	2.31628	1.71204	4.73328
1.076	24.16992	11.48071	5.63965	-7.04956	2.11487
1.0765	29.80957	18.22815	2.92053	-3.42407	7.15027
1.077	19.03381	12.18567	-3.7262	-6.3446	5.0354
1.0775	18.22815	10.67505	2.41699	-7.95593	7.95593
1.078	12.28638	5.23682	9.36584	-2.11487	11.98425
1.0785	8.35876	2.61841	0.30212	0.50354	20.64514
1.079	2.31628	-2.11487	0.50354	3.92761	19.33594
1.0795	-1.51062	1.81274	-0.10071	5.74036	23.66638
1.08	-0.90637	-0.70496	-0.10071	2.21558	24.67346
1.0805	-8.7616	-3.12195	-0.10071	0.70496	18.02673
1.081	-11.88354	-9.36584	-0.90637	-5.23682	23.8678
1.0815	-19.03381	-14.80408	-2.71912	-0.30212	18.53027
1.082	-20.04089	-15.00549	-3.02124	-0.80566	21.95435
1.0825	-28.29895	-9.46655	-1.71204	-1.00708	22.6593
1.083	-37.96692	-11.17859	0.50354	0.10071	14.60266
1.0835	-40.68604	-11.38	1.10779	-3.12195	15.71045
1.084	-39.27612	-18.63098	1.71204	5.63965	9.06372
1.0845	-34.24072	-13.39417	-5.13611	6.54602	-2.11487
1.085	-38.16833	-18.12744	-1.51062	3.7262	2.5177
1.0855	-34.34143	-11.98425	1.61133	0	-2.5177
1.086	-32.93152	-15.81116	5.74036	-0.10071	-3.42407
1.0865	-37.06055	-16.01257	-2.92053	-1.2085	-4.33044
1.087	-29.70886	-15.40833	-6.94885	1.10779	-13.99841
1.0875	-21.55151	-15.50903	-4.33044	4.12903	-12.89062
1.088	-25.68054	-5.0354	-3.12195	-1.91345	-12.38708
1.0885	-10.97717	-6.64673	-2.71912	-1.91345	-14.50195
1.089	-3.12195	1.2085	-1.61133	-3.7262	-18.02673
1.0895	-3.52478	0.70496	-1.00708	0.50354	-17.01965
1.09	7.04956	5.13611	-3.42407	-1.10779	-17.42249
1.0905	10.47363	4.83398	-2.71912	-4.53186	-21.24939
1.091	11.38	3.42407	-1.2085	0.80566	-27.59399
1.0915	13.69629	4.73328	-2.92053	-5.74036	-31.82373
1.092	22.25647	17.6239	-3.92761	1.51062	-29.70886
1.0925	27.6947	9.36584	-0.80566	-1.2085	-24.67346
1.093	34.44214	12.5885	-4.53186	-2.11487	-21.24939
1.0935	26.68762	11.17859	-0.30212	-1.10779	-15.81116
1.094	33.33435	13.59558	-0.10071	-4.53186	-15.40833
1.0945	34.34143	5.74036	-2.41699	-0.10071	-11.78284
1.095	30.71594	6.14319	0.90637	-5.43823	-6.2439
1.0955	26.48621	9.86938	2.71912	-5.63965	-2.21558
1.096	24.87488	2.71912	5.0354	1.10779	-2.01416
1.0965	24.87488	7.5531	2.11487	-0.10071	5.13611
1.097	21.65222	2.01416	-1.71204	1.3092	3.22266
1.0975	19.43665	8.96301	1.3092	-4.53186	10.47363
1.098	16.11328	9.16443	-2.92053	-7.35168	11.98425
1.0985	7.35168	-6.04248	2.81982	-4.93469	13.39417
1.099	2.5177	-6.74744	-1.10779	-0.90637	21.75293
1.0995	1.71204	-4.33044	-1.51062	-1.00708	22.25647
1.1	-11.17859	-9.06372	-1.10779	-2.11487	27.39258
1.1005	-15.91187	-9.56726	-3.62549	3.02124	14.19983
1.101	-10.97717	-14.40125	-7.75452	0.10071	22.6593
1.1015	-20.04089	-19.33594	-2.01416	-1.10779	17.72461
1.102	-33.03223	-19.33594	-4.33044	0.70496	19.43665
1.1025	-40.58533	-16.01257	-4.12903	0	19.43665
1.103	-29.91028	-20.34302	-10.0708	-0.50354	16.3147
1.1035	-30.91736	-18.73169	-4.43115	-3.92761	14.90479
1.104	-39.27612	-17.32178	-7.25098	-0.90637	8.35876
1.1045	-30.51453	-19.73877	-4.12903	-0.10071	6.44531
1.105	-38.974	-17.52319	-3.42407	-0.70496	3.22266
1.1055	-42.19666	-16.91895	-5.84106	1.40991	8.15735
1.106	-35.34851	-15.91187	-5.74036	6.14319	-1.3092
1.1065	-34.74426	-16.41541	-6.84814	-5.84106	0.50354
1.107	-29.10461	-12.68921	-2.71912	-0.10071	-8.56018
1.1075	-27.29187	-13.19275	-2.5177	1.71204	-9.26514
1.108	-22.15576	-7.04956	-1.00708	0.80566	-13.49487
1.1085	-12.28638	-2.71912	-2.21558	3.02124	-15.60974
1.109	-9.26514	0.70496	-7.15027	-0.90637	-22.45789
1.1095	-1.51062	3.42407	-9.66797	-0.10071	-22.86072
1.11	-1.3092	9.97009	-12.68921	0.90637	-23.06213
1.1105	3.52478	9.97009	0.70496	-2.81982	-24.67346
1.111	8.7616	12.28638	0.90637	-0.10071	-27.29187
1.1115	16.91895	10.57434	-0.10071	-4.43115	-22.45789
1.112	23.96851	9.46655	2.81982	-2.01416	-21.65222
1.1125	30.31311	5.23682	1.10779	-2.11487	-18.63098
1.113	25.07629	11.38	-0.50354	-2.5177	-18.22815
1.1135	29.10461	11.88354	6.54602	-4.83398	-12.5885
1.114	31.62231	9.36584	-2.61841	-7.5531	-17.22107
1.1145	32.22656	10.57434	0.70496	-0.50354	-7.45239
1.115	35.14709	11.07788	-3.32336	-0.10071	-1.91345
1.1155	33.33435	8.66089	-9.26514	-2.41699	0.70496
1.116	26.58691	11.38	2.92053	-3.92761	1.91345
1.1165	29.80957	9.46655	-1.91345	-6.3446	2.31628
1.117	24.47205	9.66797	-2.11487	-1.10779	12.28638
1.1175	15.00549	3.52478	1.2085	-1.40991	13.797
1.118	10.77576	8.56018	1.3092	-4.33044	9.97009
1.1185	-1.3092	-0.70496	1.61133	-3.7262	13.99841
1.119	-2.11487	-1.2085	-0.70496	-5.13611	15.81116
1.1195	-8.15735	-5.74036	-0.50354	-5.94177	21.45081
1.12	-13.49487	-6.74744	-0.20142	3.02124	15.30762
1.1205	-17.6239	-6.3446	-0.70496	-0.70496	16.91895
1.121	-21.04797	-10.67505	-1.10779	4.12903	16.81824
1.1215	-23.26355	-11.78284	0.50354	-5.94177	17.92603
1.122	-28.50037	-11.58142	-5.33752	-1.71204	13.29346
1.1225	-32.02515	-14.90479	-3.12195	-2.11487	13.797
1.123	-34.84497	-21.24939	2.61841	-4.53186	12.99133
1.1235	-41.79382	-14.60266	-2.71912	2.71912	9.46655
1.124	-39.98108	-16.11328	-1.71204	-1.81274	0.70496
1.1245	-41.79382	-18.02673	-2.81982	1.00708	5.23682
1.125	-39.37683	-14.40125	-0.40283	5.84106	-3.12195
1.1255	-38.57117	-15.00549	-0.10071	-3.92761	-1.10779
1.126	-40.08179	-9.66797	-1.10779	-0.80566	-4.22974
1.1265	-33.63647	-12.18567	5.33752	0.70496	-1.91345
1.127	-33.23364	-8.15735	-1.91345	-3.12195	-10.97717
1.1275	-26.68762	-7.15027	-2.11487	4.93469	-8.56018
1.128	-18.93311	-9.16443	-4.12903	3.62549	-17.42249
1.1285	-12.38708	-8.7616	-2.61841	-2.5177	-24.87488
1.129	-9.16443	-4.43115	0.30212	0.40283	-20.64514
1.1295	-5.53894	-4.02832	-8.8623	-2.41699	-23.46497
1.13	0.30212	2.21558	-3.22266	-0.10071	-27.19116
1.1305	7.04956	8.66089	-1.81274	5.53894	-22.45789
1.131	13.89771	2.31628	-1.3092	0.80566	-21.45081
1.1315	14.30054	2.5177	-2.41699	-1.10779	-23.46497
1.132	24.67346	6.2439	-2.21558	-2.21558	-18.8324
1.1325	28.09753	5.53894	2.21558	-2.5177	-19.13452
1.133	29.91028	13.69629	-1.91345	-9.46655	-18.02673
1.1335	30.31311	9.76868	-1.71204	2.11487	-13.797
1.134	28.29895	14.19983	-2.31628	-2.81982	-13.19275
1.1345	33.9386	11.88354	1.2085	-3.12195	-10.27222
1.135	26.48621	9.46655	0.30212	-1.3092	-1.91345
1.1355	26.68762	10.67505	-3.8269	0.10071	-3.62549
1.136	31.92444	5.23682	-4.53186	0.10071	9.06372
1.1365	23.06213	0.10071	2.31628	-9.16443	3.22266
1.137	22.25647	3.12195	1.3092	-0.20142	9.76868
1.1375	13.797	3.8269	-3.62549	-3.7262	12.28638
1.138	9.76868	2.81982	-4.73328	-4.12903	15.71045
1.1385	8.56018	1.3092	0.90637	-5.23682	16.21399
1.139	-5.63965	-4.02832	-2.01416	2.11487	18.42957
1.1395	-3.12195	-3.8269	-3.8269	-0.90637	21.65222
1.14	-7.5531	2.5177	-4.12903	-0.10071	24.87488
1.1405	-9.97009	-2.81982	-3.02124	-5.53894	21.75293
1.141	-21.85364	-0.20142	-5.0354	-5.0354	21.55151
1.1415	-21.65222	-8.25806	-6.64673	-0.10071	22.86072
1.142	-30.11169	-11.78284	-1.91345	1.3092	23.16284
1.1425	-36.05347	-12.78992	-6.14319	-0.10071	18.32886
1.143	-39.67896	-10.87646	-1.61133	1.61133	14.50195
1.1435	-41.69312	-19.03381	2.5177	1.2085	9.36584
1.144	-44.41223	-18.8324	-1.51062	-2.31628	6.64673
1.1445	-41.29028	-13.99841	0.90637	2.5177	3.32336
1.145	-36.55701	-15.60974	2.5177	-2.5177	0.90637
1.1455	-36.95984	-19.03381	-0.10071	-0.90637	0.30212
1.146	-36.4563	-15.40833	3.92761	-2.92053	-5.33752
1.1465	-28.9032	-13.89771	3.52478	1.2085	-7.85522
1.147	-36.15417	-16.41541	-2.31628	-0.70496	-11.48071
1.1475	-32.02515	-13.19275	1.40991	4.33044	-14.40125
1.148	-29.30603	-9.86938	-2.11487	6.64673	-20.54443
1.1485	-18.93311	-5.23682	-0.90637	-0.10071	-22.05505
1.149	-7.45239	-4.02832	1.3092	-1.3092	-25.27771
1.1495	-1.3092	-0.10071	-0.20142	-1.3092	-22.86072
1.15	-3.92761	-1.10779	-1.51062	-6.04248	-22.15576
1.1505	6.74744	-0.40283	-2.41699	-2.41699	-18.22815
1.151	5.74036	3.42407	5.13611	-0.70496	-20.44373
1.1515	13.89771	13.69629	-1.91345	-3.42407	-17.42249
1.152	21.24939	12.99133	-4.12903	-0.10071	-19.33594
1.1525	32.52869	8.66089	1.40991	2.61841	-22.86072
1.153	30.61523	13.59558	-3.52478	-4.12903	-19.73877
1.1535	31.62231	12.89062	-12.38708	-1.71204	-10.77576
1.154	32.7301	18.22815	-7.35168	-2.81982	-6.84814
1.1545	36.05347	11.78284	1.91345	-5.74036	-9.36584
1.155	28.50037	11.07788	-0.90637	-3.8269	-3.52478
1.1555	23.06213	14.60266	-2.81982	4.12903	-1.71204
1.156	27.49329	8.25806	-3.92761	-3.12195	1.3092
1.1565	31.11877	11.78284	-4.12903	-4.93469	12.78992
1.157	28.70178	6.14319	-6.74744	-5.13611	7.85522
1.1575	20.04089	9.76868	-2.5177	-2.01416	5.94177
1.158	12.99133	10.37292	-5.63965	-2.41699	11.17859
1.1585	7.65381	7.5531	3.22266	-3.12195	17.12036
1.159	2.11487	9.36584	0.40283	0.10071	15.20691
1.1595	-6.74744	0.80566	1.71204	-6.84814	20.04089
1.16	-12.78992	-10.57434	-2.92053	2.31628	25.37842
1.1605	-21.45081	-9.56726	-6.3446	1.91345	22.86072
1.161	-18.42957	-9.36584	-0.40283	-4.83398	28.09753
1.1615	-19.03381	-13.797	-2.31628	3.7262	8.56018
1.162	-23.56567	-10.87646	-2.5177	3.22266	16.51611
1.1625	-28.70178	-15.60974	-1.00708	1.40991	21.04797
1.163	-40.1825	-18.63098	-7.65381	-4.33044	15.20691
1.1635	-37.66479	-18.42957	-6.94885	-2.92053	16.21399
1.164	-36.75842	-14.80408	-6.74744	-0.10071	13.89771
1.1645	-33.83789	-16.21399	-4.22974	7.04956	8.7616
1.165	-39.37683	-8.15735	-3.02124	5.53894	-0.10071
1.1655	-42.39807	-13.99841	1.91345	5.94177	-5.94177
1.166	-41.79382	-13.797	-6.84814	4.33044	-6.84814
1.1665	-37.96692	-17.92603	-7.85522	-4.12903	-7.45239
1.167	-28.50037	-12.89062	-4.83398	1.51062	-9.56726
1.1675	-27.59399	-10.87646	-2.61841	7.35168	-18.22815
1.168	-23.06213	-4.53186	2.01416	2.92053	-18.02673
1.1685	-9.66797	-2.92053	-7.15027	1.71204	-20.54443
1.169	-6.3446	3.92761	-7.35168	-2.11487	-20.54443
1.1695	-1.81274	4.93469	-5.63965	0	-23.66638
1.17	-2.5177	-0.60425	-5.84106	-5.84106	-21.04797
1.1705	3.42407	5.13611	-0.10071	-2.01416	-18.53027
1.171	14.19983	10.17151	2.61841	-1.10779	-25.88196
1.1715	16.21399	10.17151	-0.20142	-1.61133	-28.50037
1.172	23.06213	8.15735	-0.90637	-1.10779	-20.84656
1.1725	25.98267	16.41541	3.8269	-1.40991	-15.20691
1.173	35.14709	5.94177	0.30212	0.60425	-13.39417
1.1735	30.11169	17.42249	4.43115	-3.22266	-15.00549
1.174	35.44922	17.42249	-0.60425	-5.53894	-13.89771
1.1745	34.24072	11.58142	1.71204	-8.96301	-7.04956
1.175	31.11877	12.28638	-6.84814	-5.33752	-3.92761
1.1755	29.70886	10.17151	-0.90637	-3.8269	-6.84814
1.176	32.02515	9.16443	1.10779	-4.02832	1.61133
1.1765	25.78125	11.58142	-7.25098	-0.10071	4.33044
1.177	25.68054	6.2439	1.71204	0.60425	7.5531
1.1775	21.04797	5.13611	-4.63257	-4.33044	8.8623
1.178	17.52319	0	2.21558	-2.31628	14.90479
1.1785	5.94177	-4.12903	-0.60425	-3.7262	19.03381
1.179	-0.10071	1.51062	2.71912	-4.33044	13.59558
1.1795	-6.14319	-0.30212	-1.3092	-5.74036	19.53735
1.18	-7.5531	-9.16443	1.81274	-3.12195	17.6239
1.1805	-15.60974	-12.5885	8.15735	1.10779	17.42249
1.181	-20.04089	-5.84106	-1.91345	2.21558	18.63098
